"ProteinID","C1_1","C1_2","C1_3","C2_1","C2_2","C2_3","C3_1","C3_2","C3_3","C4_1","C4_2","C4_3","C5_1","C5_2","C5_3","C6_1","C6_2","C6_3","qValue C2","qValue C3","qValue C4","qValue C5","qValue C6"
"P60709",1.4e+11,1.39e+11,1.34e+11,1.19e+11,1.42e+11,1.3e+11,1.16e+11,1.21e+11,1.14e+11,1.24e+11,1.15e+11,1.06e+11,1.3e+11,1.21e+11,1.12e+11,1.19e+11,1.24e+11,1.33e+11,0.1839,0.0021,8e-04,0.004,0.0128
"Q8WZ42",32400000,52600000,39300000,92400000,87200000,83300000,4.57e+09,5.63e+09,7.44e+09,4.34e+10,3.9e+10,3.52e+10,9.01e+10,8.31e+10,7.84e+10,9.95e+10,9.06e+10,1.16e+11,0.0026,0,0,0,0
"Q14315",2.74e+10,2.8e+10,2.71e+10,3.42e+10,3.42e+10,3.38e+10,5.06e+10,4.88e+10,4.97e+10,6.63e+10,6.45e+10,6.03e+10,7.56e+10,7.5e+10,7.12e+10,7.63e+10,7.62e+10,7.93e+10,2e-04,0,0,0,0
"P14618",5.78e+10,6.24e+10,6.07e+10,6.88e+10,6.51e+10,6.92e+10,6.79e+10,6.51e+10,7.08e+10,5.77e+10,5.93e+10,5.99e+10,5.76e+10,5.49e+10,5.66e+10,6.11e+10,6.15e+10,6.02e+10,0.0251,0.0068,0.1586,0.0328,0.1435
"P48681",3.95e+10,3.66e+10,3.87e+10,3.59e+10,3.83e+10,3.53e+10,3.8e+10,3.74e+10,3.42e+10,4.02e+10,4.11e+10,3.59e+10,5.17e+10,4.91e+10,4.5e+10,5.44e+10,5.29e+10,6.06e+10,0.2492,0.1518,0.1881,2e-04,0
"P17661",1.16e+10,1.29e+10,1.26e+10,2.01e+10,1.84e+10,1.9e+10,3.07e+10,2.95e+10,2.85e+10,3.56e+10,3.71e+10,3.4e+10,4.89e+10,4.86e+10,4.45e+10,5.26e+10,5.55e+10,5.86e+10,0,0,0,0,0
"P68032",1.54e+10,1.6e+10,2.21e+10,2.58e+10,4.31e+09,2.58e+10,1.88e+10,1.68e+10,2.09e+10,6.77e+09,2.18e+10,2.93e+10,3.64e+10,4.27e+10,5.2e+10,5.42e+10,5.42e+10,4.67e+10,0.2975,0.2942,0.2074,0.0035,8e-04
"P11055",2100000,4270000,2370000,566000,2600000,1030000,2700000,2760000,2720000,1.33e+09,9.53e+08,1.03e+09,2.56e+10,2.22e+10,2.2e+10,5.17e+10,4.71e+10,5.24e+10,0.0098,0.3239,0,0,0
"Q15149",2.94e+10,2.86e+10,2.8e+10,3.15e+10,3.15e+10,2.97e+10,3.68e+10,3.6e+10,3.76e+10,4.41e+10,4.47e+10,4.05e+10,4.81e+10,4.57e+10,4.57e+10,4.98e+10,4.84e+10,5.1e+10,0.0491,0,0,0,0
"P35579",4.29e+10,4.26e+10,4.34e+10,4.46e+10,4.5e+10,4.13e+10,4.88e+10,4.73e+10,4.61e+10,4.5e+10,4.43e+10,3.87e+10,4.07e+10,3.81e+10,3.78e+10,4.12e+10,3.97e+10,4.43e+10,0.3789,0.0176,0.214,0.0095,0.0903
"Q09666",7.77e+10,7.24e+10,7.3e+10,7.19e+10,7.71e+10,6.48e+10,7.36e+10,7.35e+10,6.91e+10,6.62e+10,6.35e+10,5.55e+10,4.79e+10,4.35e+10,4.13e+10,3.52e+10,3.36e+10,3.75e+10,0.2386,0.1933,6e-04,0,0
"P68104",3.47e+10,4.01e+10,3.85e+10,3.83e+10,3.83e+10,3.76e+10,3.31e+10,3.19e+10,3.08e+10,3.32e+10,3.3e+10,3.08e+10,3.51e+10,3.35e+10,3.31e+10,3.39e+10,3.36e+10,3.64e+10,0.421,0.0082,0.0076,0.0262,0.0327
"P07355",6.72e+10,6.79e+10,6.82e+10,7.22e+10,7.7e+10,7.45e+10,6.73e+10,6.25e+10,6.6e+10,5.38e+10,5.13e+10,5.07e+10,4.08e+10,4.03e+10,3.66e+10,3.41e+10,3.46e+10,3.31e+10,0.0321,0.1235,0,0,0
"P08670",4.37e+10,4.74e+10,4.36e+10,3.47e+10,4.43e+10,3.26e+10,5.06e+10,5.11e+10,4.55e+10,4.62e+10,4.6e+10,3.41e+10,3.96e+10,3.24e+10,2.9e+10,3.04e+10,2.73e+10,3.37e+10,0.0446,0.1203,0.1088,0.001,1e-04
"P02545",1.54e+10,1.63e+10,1.6e+10,1.66e+10,1.68e+10,1.6e+10,2.64e+10,2.55e+10,2.47e+10,2.94e+10,2.78e+10,2.42e+10,3.09e+10,2.89e+10,2.54e+10,3.02e+10,2.89e+10,3.2e+10,0.3265,0,0,0,0
"P21333",4.66e+10,4.73e+10,4.63e+10,4.22e+10,4.62e+10,4.19e+10,4.95e+10,4.98e+10,4.59e+10,4.48e+10,4.37e+10,3.92e+10,3.46e+10,3.15e+10,3e+10,2.72e+10,2.66e+10,2.94e+10,0.1056,0.1668,0.0137,0,0
"P04075",1.6e+10,1.7e+10,1.61e+10,1.63e+10,1.52e+10,1.71e+10,1.83e+10,1.76e+10,1.72e+10,1.86e+10,1.76e+10,1.59e+10,2.4e+10,2.28e+10,2.24e+10,2.54e+10,2.62e+10,2.59e+10,0.417,0.0472,0.0713,0,0
"P08238",2.38e+10,2.42e+10,2.29e+10,2.55e+10,2.74e+10,2.45e+10,2.28e+10,2.15e+10,2.16e+10,2.48e+10,2.43e+10,2.18e+10,2.63e+10,2.65e+10,2.49e+10,2.53e+10,2.47e+10,2.55e+10,0.0346,0.0235,0.2431,0.0049,0.014
"P07951",3.54e+09,4.44e+09,5.84e+09,6.42e+09,5.78e+09,6.72e+09,5.53e+09,5.82e+09,5.05e+09,6.92e+09,6.36e+09,6.45e+09,1.65e+10,1.62e+10,1.43e+10,2.61e+10,2.24e+10,2.41e+10,0.0756,0.1119,0.0137,0,0
"P11021",1.15e+10,1.17e+10,1.24e+10,1.46e+10,1.55e+10,1.44e+10,1.26e+10,1.27e+10,1.2e+10,1.55e+10,1.49e+10,1.29e+10,2.09e+10,1.96e+10,1.92e+10,2.21e+10,2.04e+10,2.18e+10,0.0054,0.1652,0.0018,0,0
"P08133",1.52e+10,1.45e+10,1.4e+10,1.81e+10,1.82e+10,1.69e+10,2.02e+10,1.93e+10,2.04e+10,2.1e+10,2.07e+10,2.01e+10,2.15e+10,1.96e+10,2.03e+10,2.1e+10,2.05e+10,2.06e+10,5e-04,0,0,0,0
"Q9UPN3",9.19e+09,8.5e+09,8.38e+09,1.07e+10,1.04e+10,1e+10,1.12e+10,1.14e+10,1.16e+10,1.81e+10,1.74e+10,1.64e+10,2.12e+10,1.99e+10,2.03e+10,1.88e+10,1.84e+10,1.96e+10,0.0019,0,0,0,0
"O43707",2.38e+10,2.27e+10,2.33e+10,2.15e+10,2.23e+10,2.11e+10,2.33e+10,2.43e+10,2.25e+10,2.32e+10,2.3e+10,2.06e+10,2e+10,1.94e+10,1.9e+10,1.83e+10,1.77e+10,1.99e+10,0.1015,0.3076,0.085,3e-04,0
"Q9BVA1",1.4e+10,1.7e+10,1.61e+10,1.83e+10,1.56e+10,1.74e+10,1.89e+10,1.94e+10,1.87e+10,1.66e+10,1.58e+10,1.54e+10,1.8e+10,1.68e+10,1.65e+10,1.77e+10,1.83e+10,1.87e+10,0.2138,0.0144,0.2164,0.0743,0.014
"Q14204",1.73e+10,1.64e+10,1.59e+10,1.7e+10,1.78e+10,1.65e+10,1.65e+10,1.64e+10,1.66e+10,1.65e+10,1.6e+10,1.56e+10,1.68e+10,1.6e+10,1.65e+10,1.81e+10,1.8e+10,1.81e+10,0.2564,0.3117,0.1057,0.1971,0.0042
"P06733",2.49e+10,2.57e+10,2.65e+10,2.55e+10,2.66e+10,2.53e+10,2.58e+10,2.57e+10,2.48e+10,2.1e+10,2.17e+10,2.05e+10,1.83e+10,1.85e+10,1.63e+10,1.76e+10,1.83e+10,1.73e+10,0.4394,0.291,3e-04,0,0
"P08758",1.58e+10,1.69e+10,1.75e+10,1.78e+10,1.96e+10,1.84e+10,2.17e+10,2.11e+10,1.91e+10,1.75e+10,1.81e+10,1.6e+10,1.53e+10,1.58e+10,1.55e+10,1.8e+10,1.79e+10,1.73e+10,0.0745,0.0011,0.1596,0.0511,0.0536
"P00488",78300000,26700000,38400000,5.21e+08,5.08e+08,4.66e+08,8.61e+08,9.67e+08,1.12e+09,5.4e+09,5.07e+09,4.23e+09,1.25e+10,1.18e+10,1.15e+10,1.73e+10,1.75e+10,1.83e+10,1e-04,0,0,0,0
"P00338",2e+10,1.69e+10,1.72e+10,2.69e+10,2.63e+10,2.59e+10,2.05e+10,2.17e+10,2.25e+10,1.96e+10,1.8e+10,1.77e+10,1.65e+10,1.74e+10,1.68e+10,1.71e+10,1.7e+10,1.7e+10,4e-04,0.0069,0.187,0.0889,0.0764
"Q9Y490",2.35e+10,2.24e+10,2.28e+10,2.37e+10,2.39e+10,2.3e+10,2.24e+10,2.25e+10,2.19e+10,2.03e+10,2.01e+10,1.96e+10,1.81e+10,1.76e+10,1.78e+10,1.6e+10,1.61e+10,1.7e+10,0.2532,0.1508,4e-04,0,0
"P12277",2.59e+08,2.5e+08,2.42e+08,6.63e+08,6.29e+08,6.08e+08,2.35e+09,2.53e+09,2.61e+09,8.88e+09,8.65e+09,7.38e+09,1.48e+10,1.43e+10,1.31e+10,1.54e+10,1.54e+10,1.64e+10,0,0,0,0,0
"P23528",1.97e+10,2.03e+10,2.03e+10,1.9e+10,2.03e+10,1.94e+10,2.15e+10,2.1e+10,2.04e+10,1.89e+10,1.94e+10,1.78e+10,1.72e+10,1.62e+10,1.71e+10,1.54e+10,1.5e+10,1.59e+10,0.2731,0.1014,0.0184,1e-04,0
"P60174",9.5e+09,1.02e+10,1.1e+10,1.27e+10,1.22e+10,1.39e+10,1.58e+10,1.6e+10,1.6e+10,1.54e+10,1.55e+10,1.64e+10,1.38e+10,1.63e+10,1.56e+10,1.5e+10,1.6e+10,1.47e+10,0.0016,0,0,0,0
"P13639",1.85e+10,1.79e+10,1.74e+10,1.69e+10,1.9e+10,1.62e+10,1.35e+10,1.37e+10,1.36e+10,1.53e+10,1.57e+10,1.4e+10,1.65e+10,1.57e+10,1.57e+10,1.49e+10,1.44e+10,1.52e+10,0.2464,0,2e-04,0.0027,1e-04
"Q13813",1.29e+10,1.18e+10,1.24e+10,1.35e+10,1.31e+10,1.32e+10,1.47e+10,1.44e+10,1.34e+10,1.55e+10,1.5e+10,1.42e+10,1.54e+10,1.51e+10,1.46e+10,1.5e+10,1.42e+10,1.52e+10,0.0838,0.0016,1e-04,1e-04,1e-04
"P55072",1.04e+10,1.06e+10,1.05e+10,1.06e+10,1.03e+10,1.05e+10,1.13e+10,1.09e+10,1.13e+10,1.12e+10,1.16e+10,1.17e+10,1.37e+10,1.39e+10,1.34e+10,1.43e+10,1.47e+10,1.41e+10,0.4445,0.023,0.0026,0,0
"P07237",1.12e+10,1.03e+10,1.11e+10,1.16e+10,1.31e+10,1.19e+10,1.07e+10,1.08e+10,1.01e+10,1.03e+10,1.01e+10,8.79e+09,1.27e+10,1.17e+10,1.06e+10,1.45e+10,1.3e+10,1.44e+10,0.0761,0.2237,0.0215,0.0665,2e-04
"P13535",65900000,NA,6340000,NA,8750000,87600000,3670000,4640000,5e+06,3.69e+09,2.84e+09,2.77e+09,1.37e+10,1.32e+10,1.33e+10,1.34e+10,1.43e+10,1.38e+10,0.1135,0.0746,0.001,2e-04,1e-04
"P06396",7.28e+09,6.6e+09,6.65e+09,7.31e+09,8.57e+09,7.02e+09,9.69e+09,9.94e+09,8.79e+09,1.04e+10,1.03e+10,9.8e+09,1.23e+10,1.08e+10,1.11e+10,1.37e+10,1.26e+10,1.49e+10,0.0807,1e-04,0,0,0
"Q9BUF5",5.48e+09,5.53e+09,5.18e+09,6.14e+09,7.11e+09,5.75e+09,5.97e+09,5.95e+09,6.29e+09,8.03e+09,7.22e+09,6.8e+09,1.1e+10,1.12e+10,1.13e+10,1.3e+10,1.26e+10,1.31e+10,0.0103,0.0109,0,0,0
"Q00610",1.61e+10,1.56e+10,1.5e+10,1.62e+10,1.71e+10,1.64e+10,1.53e+10,1.57e+10,1.59e+10,1.55e+10,1.54e+10,1.49e+10,1.29e+10,1.29e+10,1.37e+10,1.26e+10,1.28e+10,1.25e+10,0.1127,0.3052,0.1736,3e-04,0
"P50454",1.07e+10,1.06e+10,9.95e+09,1.13e+10,1.27e+10,1.15e+10,9.85e+09,1.02e+10,9.8e+09,1.04e+10,9.8e+09,9.57e+09,1.13e+10,9.84e+09,1.05e+10,1.28e+10,1.2e+10,1.3e+10,0.0189,0.1273,0.0805,0.1912,1e-04
"P49327",5.52e+09,5.61e+09,5.3e+09,4.97e+09,5.08e+09,4.96e+09,4.02e+09,3.93e+09,4.23e+09,4.86e+09,4.75e+09,4.9e+09,8.74e+09,8.5e+09,9.07e+09,1.27e+10,1.25e+10,1.26e+10,0.0459,0,0.0024,0,0
"P04406",1.01e+10,1.02e+10,1.06e+10,1.41e+10,1.45e+10,1.42e+10,1.35e+10,1.36e+10,1.44e+10,1.26e+10,1.13e+10,1.19e+10,1.27e+10,1.34e+10,1.3e+10,1.2e+10,1.37e+10,1.16e+10,1e-04,0,0.0019,0,2e-04
"E9PAV3",2.71e+09,3.2e+09,2.9e+09,2.39e+09,2.73e+09,2.42e+09,1.67e+09,1.69e+09,1.54e+09,7.07e+09,6.74e+09,5.9e+09,1.31e+10,1.18e+10,1.09e+10,1.23e+10,1.17e+10,1.29e+10,0.057,0,0,0,0
"Q01082",1.04e+10,9.86e+09,9.8e+09,1.06e+10,1.09e+10,1.04e+10,1.13e+10,1.18e+10,1.12e+10,1.26e+10,1.22e+10,1.16e+10,1.26e+10,1.22e+10,1.19e+10,1.18e+10,1.18e+10,1.27e+10,0.1139,0.0019,1e-04,0,0
"P30041",4.44e+09,4.46e+09,4.7e+09,5.07e+09,4.61e+09,5.5e+09,4.81e+09,4.87e+09,4.9e+09,5.04e+09,5.56e+09,6.19e+09,8.8e+09,9.39e+09,1.02e+10,1.24e+10,1.21e+10,1.15e+10,0.0372,0.0534,2e-04,0,0
"P00558",9.76e+09,9.36e+09,8.97e+09,1.21e+10,1.33e+10,1.11e+10,1.3e+10,1.39e+10,1.29e+10,1.27e+10,1.22e+10,1.04e+10,1.2e+10,1.05e+10,1.06e+10,1.18e+10,1.18e+10,1.23e+10,6e-04,0,1e-04,9e-04,0
"Q6ZMU5",1.96e+09,2.01e+09,1.95e+09,2.64e+09,2.63e+09,2.68e+09,3.6e+09,3.5e+09,3.69e+09,5.13e+09,4.94e+09,4.71e+09,8.18e+09,8.64e+09,8.74e+09,1.13e+10,1.21e+10,1.13e+10,0,0,0,0,0
"P58876",1.09e+10,8.83e+09,1.02e+10,1.07e+10,1.21e+10,1.03e+10,1.71e+10,1.66e+10,1.48e+10,1.6e+10,1.57e+10,1.15e+10,1.42e+10,1.07e+10,9.82e+09,1.18e+10,9.9e+09,1.28e+10,0.2206,2e-04,0.0011,0.0463,0.0311
"P11142",1.5e+10,1.4e+10,1.45e+10,1.41e+10,1.57e+10,1.34e+10,1.19e+10,1.17e+10,1.04e+10,1.35e+10,1.28e+10,1.06e+10,1.31e+10,1.14e+10,1.1e+10,1.13e+10,1.11e+10,1.2e+10,0.4248,5e-04,0.0034,9e-04,3e-04
"P18206",1.17e+10,1.15e+10,1.14e+10,1.16e+10,1.24e+10,1.09e+10,1.18e+10,1.2e+10,1.12e+10,1.26e+10,1.2e+10,1.09e+10,1.26e+10,1.13e+10,1.09e+10,1.16e+10,1.06e+10,1.21e+10,0.4214,0.291,0.1577,0.2345,0.1313
"Q06830",7.97e+09,7.07e+09,7.59e+09,6.95e+09,7.56e+09,7.51e+09,8.68e+09,8.85e+09,7.96e+09,8.77e+09,8.59e+09,7.93e+09,1.04e+10,1.03e+10,9.11e+09,1.13e+10,1.12e+10,1.17e+10,0.3478,0.0248,0.0214,1e-04,0
"P62805",1.12e+10,1.01e+10,1.02e+10,1.26e+10,1.43e+10,1.3e+10,1.58e+10,1.64e+10,1.56e+10,1.7e+10,1.6e+10,1.23e+10,1.3e+10,1.22e+10,1.27e+10,1.1e+10,1.09e+10,1.2e+10,0.0079,0,1e-04,0.0035,0.0477
"Q9NQC3",3.22e+09,3.35e+09,3.4e+09,2.51e+09,2.31e+09,1.98e+09,2.17e+09,2.59e+09,2.39e+09,4.14e+09,4.17e+09,4.44e+09,9.76e+09,7.4e+09,7.31e+09,9.92e+09,1.19e+10,1.19e+10,9e-04,4e-04,0.0019,0,0
"P62937",1.26e+10,1.09e+10,1.04e+10,1.29e+10,1.54e+10,1.22e+10,1.42e+10,1.57e+10,1.37e+10,1.38e+10,1.24e+10,1.05e+10,1.24e+10,1.11e+10,1.04e+10,1.16e+10,1.05e+10,1.13e+10,0.0287,0.0012,0.075,0.2348,0.1557
"P25705",7.3e+09,7.47e+09,7.32e+09,7.67e+09,7.55e+09,7.74e+09,8.98e+09,8.95e+09,9.8e+09,9.84e+09,9.71e+09,1.05e+10,1.02e+10,1.04e+10,1.07e+10,1.13e+10,1.17e+10,1.04e+10,0.2196,0,0,0,0
"P26038",1.42e+10,1.41e+10,1.39e+10,1.53e+10,1.46e+10,1.43e+10,1.44e+10,1.4e+10,1.42e+10,1.29e+10,1.3e+10,1.26e+10,1.07e+10,1.15e+10,1.13e+10,1.12e+10,1.11e+10,1.09e+10,0.1351,0.2819,0.0035,0,0
"P06576",8.12e+09,7.33e+09,7.15e+09,7.2e+09,8.53e+09,7.12e+09,1.02e+10,9.9e+09,9.64e+09,1.16e+10,1.06e+10,9.04e+09,1.14e+10,1e+10,9.91e+09,1.08e+10,1.01e+10,1.14e+10,0.4248,2e-04,0,0,0
"P04083",1.55e+10,1.62e+10,1.62e+10,1.49e+10,1.44e+10,1.6e+10,1.47e+10,1.47e+10,1.46e+10,1.25e+10,1.23e+10,1.35e+10,1.06e+10,1.1e+10,1.13e+10,1.07e+10,1.13e+10,1.03e+10,0.1245,0.0153,0,0,0
"P22626",1.05e+10,1.06e+10,9.81e+09,1.04e+10,1.2e+10,1.07e+10,1.41e+10,1.37e+10,1.32e+10,1.26e+10,1.19e+10,1.11e+10,1.13e+10,1.07e+10,1.03e+10,1.03e+10,1.06e+10,1.03e+10,0.0925,0,8e-04,0.0649,0.1313
"P02751",8.72e+09,9.53e+09,1.08e+10,1.39e+10,1.35e+10,1.41e+10,5.76e+09,5.97e+09,5.51e+09,4.47e+09,4.39e+09,4.22e+09,5.34e+09,4.81e+09,4.73e+09,1.06e+10,1.01e+10,1.05e+10,0.0029,0,0,0,0.0687
"Q702N8",2.13e+09,2.01e+09,1.94e+09,2.78e+09,2.8e+09,2.63e+09,2.79e+09,2.9e+09,2.78e+09,7.22e+09,6.86e+09,6e+09,1.13e+10,1e+10,9.8e+09,1.01e+10,9.91e+09,1.1e+10,2e-04,0,0,0,0
"P12814",1.1e+10,1.02e+10,1.04e+10,9.55e+09,8.98e+09,9.69e+09,9.63e+09,9.35e+09,9.8e+09,8.76e+09,8.8e+09,8.5e+09,8.25e+09,9.09e+09,9.08e+09,1e+10,1.01e+10,1.02e+10,0.0281,0.0197,2e-04,3e-04,0.0556
"P30101",7.24e+09,7.77e+09,7.11e+09,8.13e+09,9.33e+09,8.31e+09,8.57e+09,8.46e+09,8.05e+09,8.56e+09,8.21e+09,7.15e+09,9.81e+09,9.06e+09,8.76e+09,9.71e+09,9.44e+09,1e+10,0.0127,0.0085,0.0362,1e-04,0
"P09493",3.17e+09,3.56e+09,4.5e+09,4.45e+09,4.61e+09,4.13e+09,2.84e+09,2.83e+09,2.62e+09,4.81e+09,4.15e+09,3.85e+09,8.23e+09,7.14e+09,7.18e+09,1.06e+10,8.2e+09,1.02e+10,0.1847,0.0256,0.0973,1e-04,0
"O60662",9.05e+08,8.21e+08,7.34e+08,1.37e+09,1.15e+09,1.2e+09,2.2e+09,2.35e+09,2.47e+09,5.71e+09,5.53e+09,5.72e+09,9.24e+09,8.9e+09,8.74e+09,9.81e+09,9.32e+09,9.61e+09,4e-04,0,0,0,0
"P07195",9.77e+09,8.13e+09,7.27e+09,8.9e+09,1.1e+10,8.31e+09,8.86e+09,8.99e+09,9.03e+09,9.2e+09,8.82e+09,7.86e+09,9.47e+09,8.45e+09,8.04e+09,9.56e+09,8.87e+09,9.44e+09,0.1612,0.155,0.1827,0.167,0.0394
"P62328",8.34e+09,7.88e+09,8.29e+09,1.57e+10,2.06e+10,1.79e+10,1.53e+10,1.39e+10,1.33e+10,1.37e+10,1.14e+10,9.98e+09,1.22e+10,1.08e+10,9.28e+09,9.08e+09,1.07e+10,8.11e+09,0,0,6e-04,0.0024,0.0334
"O75923",4.16e+09,4.08e+09,3.88e+09,4.86e+09,4.93e+09,4.77e+09,5.46e+09,5.64e+09,5.6e+09,7.15e+09,6.94e+09,6.78e+09,8.75e+09,8.31e+09,8.52e+09,9.07e+09,8.85e+09,9.58e+09,0.0014,0,0,0,0
"P14625",7.95e+09,7.49e+09,7e+09,7.84e+09,9.38e+09,8.08e+09,7.42e+09,7.76e+09,6.97e+09,7.86e+09,7.18e+09,6.16e+09,9.45e+09,7.77e+09,7.69e+09,8.56e+09,8.92e+09,9.39e+09,0.0656,0.2901,0.0861,0.0259,0.0013
"P62258",8.75e+09,7.58e+09,7.76e+09,8.23e+09,9.27e+09,7.75e+09,8.43e+09,8.76e+09,8.38e+09,8.99e+09,8.49e+09,7.86e+09,8.94e+09,8.04e+09,8.3e+09,8.84e+09,8.66e+09,8.99e+09,0.265,0.1171,0.1043,0.1006,0.0191
"P61978",9.83e+09,9.79e+09,9.45e+09,1.03e+10,1.05e+10,9.36e+09,1.31e+10,1.15e+10,1.2e+10,1.11e+10,1.15e+10,9.99e+09,1.09e+10,9.89e+09,9.21e+09,8.91e+09,8.35e+09,8.89e+09,0.2492,1e-04,0.0063,0.1298,0.0042
"P07737",9.31e+09,8.81e+09,8.63e+09,8.82e+09,8.88e+09,8.03e+09,1.02e+10,1.03e+10,1e+10,9.56e+09,9.61e+09,8.42e+09,8.81e+09,8.43e+09,7.29e+09,7.97e+09,8.48e+09,9.29e+09,0.2642,0.0082,0.1474,0.0222,0.0763
"P78559",1.94e+09,1.85e+09,1.88e+09,2.17e+09,2.14e+09,2.02e+09,3.82e+09,3.79e+09,3.62e+09,5.08e+09,5.02e+09,4.6e+09,7.2e+09,6.58e+09,6.54e+09,8.45e+09,8.12e+09,9.01e+09,0.0181,0,0,0,0
"Q3ZCM7",5.86e+09,7.65e+09,7.46e+09,9.01e+09,1.06e+10,8.49e+09,9.77e+09,9.14e+09,9.13e+09,9.01e+09,9.58e+09,7.88e+09,8.81e+09,7.08e+09,8.01e+09,8.38e+09,7.83e+09,9.21e+09,0.0318,0.0104,0.0174,0.0669,0.0188
"P45379",18200000,11200000,5820000,1.4e+08,1.19e+08,92200000,6.64e+08,5.26e+08,6.07e+08,2.4e+09,2.78e+09,1.81e+09,6.25e+09,5.74e+09,5.44e+09,8.02e+09,7.22e+09,8.29e+09,0,0,0,0,0
"P78527",8.49e+09,8.25e+09,8.12e+09,8.68e+09,8.72e+09,8.23e+09,1.07e+10,1.1e+10,1.12e+10,1.07e+10,1.04e+10,1e+10,9.07e+09,8.79e+09,8.91e+09,7.65e+09,7.78e+09,7.95e+09,0.234,0,0,0.0098,0.014
"P62158",6.66e+09,9.35e+09,1.05e+10,8.18e+09,7.05e+09,8.94e+09,8.75e+09,8.28e+09,7.46e+09,7.2e+09,8.36e+09,7.53e+09,8.51e+09,7.21e+09,6.21e+09,7.71e+09,7.04e+09,8.37e+09,0.3495,0.2571,0.13,0.0768,0.0876
"P46940",1.1e+10,1.1e+10,1.07e+10,1.16e+10,1.17e+10,1.09e+10,1.35e+10,1.33e+10,1.35e+10,1.24e+10,1.24e+10,1.16e+10,9.55e+09,9.01e+09,9.26e+09,7.69e+09,7.38e+09,7.84e+09,0.1585,0,0.002,1e-04,0
"P63316",NA,13900000,3730000,1.06e+08,72900000,6.7e+07,2.85e+08,3.02e+08,3.62e+08,1.69e+09,1.69e+09,1.75e+09,4.76e+09,5.12e+09,5.46e+09,7.28e+09,8.07e+09,6.89e+09,0.0141,3e-04,0,0,0
"P07900",8.81e+09,9.83e+09,9.05e+09,8.83e+09,9.01e+09,8.48e+09,8.83e+09,8.43e+09,8.28e+09,8.73e+09,8.61e+09,8.05e+09,8.23e+09,7.38e+09,7.57e+09,7.71e+09,7.15e+09,7.31e+09,0.2425,0.0673,0.0398,0.0017,3e-04
"P27816",5.98e+09,5.87e+09,5.75e+09,6.21e+09,6.27e+09,5.74e+09,5.98e+09,6.23e+09,5.8e+09,6.8e+09,6.36e+09,5.5e+09,7.6e+09,6.63e+09,6.32e+09,7.15e+09,6.69e+09,7.52e+09,0.2863,0.2327,0.073,0.0017,2e-04
"P22392",7.82e+09,8.77e+09,8.33e+09,8e+09,8.97e+09,7.22e+09,7.87e+09,8.33e+09,7.48e+09,7.73e+09,7.21e+09,6.27e+09,7.38e+09,6.75e+09,6.41e+09,6.74e+09,6.7e+09,7.28e+09,0.3401,0.1684,0.0075,0.0027,0.0023
"Q9UKX2",3830000,4200000,5580000,3860000,5050000,8580000,6140000,NA,3570000,3.22e+08,2.78e+08,2.86e+08,7.63e+09,4.49e+09,6.97e+09,8.74e+09,5.91e+09,5.57e+09,0.2283,0.3272,0,0,0
"Q14697",7.01e+09,6.89e+09,6.77e+09,8.09e+09,8.27e+09,7.94e+09,7.29e+09,7.31e+09,7.56e+09,7.27e+09,7.13e+09,7.27e+09,6.72e+09,6.86e+09,7.01e+09,6.64e+09,6.55e+09,6.64e+09,0.0011,0.0208,0.0466,0.2163,0.0366
"P27797",4.62e+09,3.83e+09,5.72e+09,7.1e+09,5.32e+09,7.65e+09,5.55e+09,4.94e+09,6.31e+09,5.3e+09,5.34e+09,6.61e+09,5.88e+09,7.46e+09,7.08e+09,6.53e+09,6.11e+09,7.09e+09,0.0049,0.027,0.011,3e-04,3e-04
"Q01995",7.68e+09,7.75e+09,8.28e+09,6.96e+09,6.78e+09,6.84e+09,4.72e+09,5.07e+09,4.78e+09,3.7e+09,3.52e+09,3.23e+09,3.74e+09,3.97e+09,3.94e+09,6.05e+09,6.98e+09,6.53e+09,0.022,0,0,0,3e-04
"P26641",8.38e+09,7.81e+09,7.67e+09,7.4e+09,8.09e+09,7.13e+09,6.48e+09,6.6e+09,6.44e+09,6.92e+09,6.8e+09,6.69e+09,6.9e+09,6.79e+09,6.98e+09,6.67e+09,6.24e+09,6.53e+09,0.1641,2e-04,8e-04,0.0011,1e-04
"P40926",3.98e+09,4.09e+09,4.03e+09,3.94e+09,3.9e+09,3.7e+09,5.7e+09,5.43e+09,5.25e+09,6.25e+09,6.59e+09,5.66e+09,6.39e+09,5.99e+09,5.96e+09,6.66e+09,6.08e+09,6.65e+09,0.2044,0,0,0,0
"P00352",9.22e+09,9.11e+09,8.76e+09,1.14e+10,1.2e+10,1.06e+10,1.24e+10,1.26e+10,1.21e+10,1.07e+10,1.06e+10,9.76e+09,8.35e+09,7.16e+09,7.49e+09,6.64e+09,6.28e+09,6.39e+09,3e-04,0,9e-04,2e-04,0
"P14649",6500000,15300000,17200000,32300000,19200000,40200000,2.07e+08,2.12e+08,2.14e+08,1.41e+09,1.32e+09,1.34e+09,4.72e+09,4.43e+09,4.53e+09,6.87e+09,6.1e+09,6.12e+09,0.0313,0,0,0,0
"P13929",2e+07,24800000,40500000,67600000,82100000,90800000,1.23e+08,2.64e+08,1.53e+08,1.26e+09,1.29e+09,1.28e+09,4.11e+09,3.71e+09,3.49e+09,6.64e+09,6.35e+09,6.08e+09,0.0022,0,0,0,0
"O75083",9.2e+09,8.76e+09,8.49e+09,8.67e+09,1e+10,8.96e+09,7.55e+09,8.12e+09,8.38e+09,8.53e+09,8.24e+09,7.53e+09,7.05e+09,6.37e+09,6.97e+09,6.29e+09,6.06e+09,6.36e+09,0.2479,0.0327,0.0316,1e-04,0
"P50395",7.14e+09,6.94e+09,6.58e+09,7.02e+09,7.42e+09,7.15e+09,6.07e+09,5.98e+09,6.45e+09,6.1e+09,6.13e+09,6.09e+09,6.03e+09,5.86e+09,6.12e+09,6.14e+09,6.52e+09,5.9e+09,0.2158,0.0107,0.0047,0.0018,0.0043
"P22314",6.59e+09,6.86e+09,6.63e+09,6.85e+09,6.73e+09,6.61e+09,7.24e+09,6.71e+09,6.87e+09,6.57e+09,6.65e+09,6.5e+09,6.08e+09,6.16e+09,6.2e+09,5.97e+09,6.03e+09,6.05e+09,0.4214,0.1168,0.1562,0.006,0.0012
"P06703",6.94e+09,6.18e+09,7.88e+09,7.13e+09,7.12e+09,6.23e+09,8.14e+09,9.31e+09,7.92e+09,6.91e+09,7.69e+09,5.89e+09,7.21e+09,5.39e+09,4.84e+09,6.15e+09,6.01e+09,5.88e+09,0.4214,0.0651,0.215,0.0387,0.049
"Q14764",5.21e+09,5.15e+09,4.99e+09,5.79e+09,5.39e+09,5.52e+09,4.43e+09,4.27e+09,4.53e+09,4.85e+09,4.91e+09,4.92e+09,5.63e+09,5.53e+09,5.95e+09,6.06e+09,5.94e+09,5.91e+09,0.0443,7e-04,0.0644,0.0025,2e-04
"P04792",1.22e+09,1.35e+09,1.37e+09,1.73e+09,1.62e+09,1.67e+09,1.96e+09,2.22e+09,2.07e+09,2.99e+09,3.2e+09,2.94e+09,4.55e+09,4.34e+09,4.53e+09,5.7e+09,6.03e+09,6.17e+09,0.0013,0,0,0,0
"P10412",4.5e+09,5.21e+09,5.81e+09,7.32e+09,7.08e+09,5.58e+09,8.41e+09,8.47e+09,8.08e+09,8.73e+09,7.61e+09,6.73e+09,7.47e+09,5.68e+09,5.75e+09,6.4e+09,5.14e+09,6.19e+09,0.0913,0.0022,0.0042,0.0464,0.0627
"P09651",7.69e+09,8.98e+09,8.6e+09,8.03e+09,8.39e+09,8.58e+09,9e+09,9.23e+09,9.17e+09,7.78e+09,7.76e+09,7.95e+09,6.73e+09,6.72e+09,6.49e+09,5.41e+09,5.97e+09,5.83e+09,0.4175,0.0431,0.0447,1e-04,0
"P13667",4.25e+09,4.07e+09,4e+09,4.49e+09,5.01e+09,4.04e+09,4.23e+09,4.2e+09,3.98e+09,4.76e+09,4.5e+09,3.73e+09,6.16e+09,5.4e+09,4.84e+09,5.82e+09,5.33e+09,6.02e+09,0.1135,0.3094,0.1079,1e-04,0
"P78371",6.66e+09,6.31e+09,6.6e+09,6.5e+09,6.46e+09,6.78e+09,5.41e+09,5.3e+09,5.45e+09,5.66e+09,5.48e+09,6.09e+09,6.01e+09,6.28e+09,6.22e+09,5.7e+09,5.98e+09,5.36e+09,0.4116,2e-04,0.0021,0.0453,6e-04
"P50990",6.81e+09,6.81e+09,6.72e+09,6.41e+09,6.65e+09,6.14e+09,5.2e+09,5.08e+09,5.32e+09,5.81e+09,5.86e+09,5.12e+09,6.07e+09,5.62e+09,5.84e+09,5.68e+09,5.54e+09,5.77e+09,0.1196,0,1e-04,4e-04,1e-04
"P02511",9.47e+08,1.13e+09,1.13e+09,1.67e+09,1.58e+09,1.66e+09,1.61e+09,1.74e+09,1.58e+09,2.05e+09,1.85e+09,2e+09,3.72e+09,4.02e+09,3.73e+09,5.77e+09,5.8e+09,5.32e+09,5e-04,1e-04,0,0,0
"O60664",2.64e+09,2.68e+09,2.75e+09,4.14e+09,4.06e+09,4.18e+09,4.01e+09,3.77e+09,3.99e+09,3.88e+09,4e+09,3.92e+09,4.72e+09,4.72e+09,4.73e+09,5.45e+09,5.67e+09,5.38e+09,0,0,0,0,0
"P63104",6.99e+09,7.01e+09,6.56e+09,6.29e+09,6.74e+09,5.78e+09,6.61e+09,6.68e+09,6.11e+09,5.5e+09,5.79e+09,4.68e+09,5.42e+09,5.38e+09,4.06e+09,5.33e+09,5.6e+09,5.32e+09,0.0873,0.1013,1e-04,0,1e-04
"P10809",6.71e+09,6.93e+09,6.87e+09,6.27e+09,6.69e+09,7.11e+09,6.92e+09,6.73e+09,6.84e+09,6.7e+09,6.67e+09,7.3e+09,5.94e+09,6.04e+09,6.21e+09,5.26e+09,5.32e+09,5.43e+09,0.2981,0.3296,0.215,0.0011,0
"P49368",6.6e+09,6.17e+09,6.14e+09,5.84e+09,5.84e+09,5.65e+09,5.54e+09,5.16e+09,5.2e+09,5.64e+09,5.66e+09,5.06e+09,5.72e+09,5.08e+09,5.1e+09,5.33e+09,4.99e+09,5.41e+09,0.0381,2e-04,5e-04,1e-04,0
"P51991",5.02e+09,5.27e+09,5.11e+09,5.08e+09,5.61e+09,5.24e+09,7e+09,7.1e+09,6.61e+09,6.81e+09,6.51e+09,5.88e+09,6.09e+09,5.44e+09,5.07e+09,5.27e+09,4.94e+09,5.42e+09,0.299,0,3e-04,0.0431,0.1391
"Q07065",7.63e+09,7.68e+09,7.99e+09,8.02e+09,8.2e+09,7.74e+09,7.22e+09,7.26e+09,6.7e+09,6.43e+09,6.31e+09,6.02e+09,5.76e+09,5.43e+09,5.51e+09,5.27e+09,4.99e+09,5.32e+09,0.2975,0.0165,1e-04,0,0
"P36578",6.06e+09,6.28e+09,6.57e+09,7.36e+09,6.82e+09,6.97e+09,5.76e+09,5.7e+09,5.75e+09,5.67e+09,5.59e+09,5.63e+09,5.48e+09,6.12e+09,6.04e+09,5.21e+09,5.26e+09,5.05e+09,0.0264,0.0174,0.0053,0.028,1e-04
"P31948",4.56e+09,4.62e+09,5.08e+09,4.63e+09,5.02e+09,4.45e+09,4.59e+09,4.39e+09,3.92e+09,4.99e+09,4.68e+09,3.96e+09,5.31e+09,4.87e+09,4.72e+09,5.4e+09,4.73e+09,5.36e+09,0.4293,0.0903,0.1476,0.1455,0.057
"P61158",6.89e+09,6.8e+09,6.73e+09,6.26e+09,6.8e+09,6.19e+09,7.21e+09,6.67e+09,6.74e+09,6.62e+09,6.23e+09,5.95e+09,5.85e+09,5.39e+09,5.32e+09,4.98e+09,5.04e+09,5.32e+09,0.1161,0.2848,0.0125,0,0
"P55209",6.48e+09,6.52e+09,6.83e+09,8.13e+09,8.47e+09,7.58e+09,6.38e+09,6.55e+09,5.93e+09,6.04e+09,5.55e+09,4.84e+09,5.01e+09,4.35e+09,4.78e+09,5.4e+09,4.63e+09,5.18e+09,0.0132,0.1594,0.0026,0,1e-04
"P38646",3.84e+09,3.62e+09,3.63e+09,3.46e+09,3.64e+09,3.44e+09,4.11e+09,3.83e+09,3.76e+09,4.5e+09,4.5e+09,4.36e+09,5.07e+09,4.97e+09,4.79e+09,5.09e+09,4.85e+09,5.18e+09,0.1379,0.0588,1e-04,0,0
"P48643",5.67e+09,5.6e+09,5.2e+09,5.5e+09,5.39e+09,5.21e+09,4.74e+09,4.63e+09,4.67e+09,5.13e+09,5.04e+09,4.7e+09,5.3e+09,5.02e+09,5.08e+09,5e+09,4.79e+09,5.3e+09,0.3296,0.001,0.0076,0.0309,0.0084
"P27824",3.52e+09,3.71e+09,4e+09,4.45e+09,4.04e+09,4.28e+09,3.89e+09,4.2e+09,3.76e+09,4.26e+09,4.17e+09,4.46e+09,4.76e+09,4.66e+09,4.93e+09,4.93e+09,4.49e+09,5.58e+09,0.0386,0.1279,0.0063,1e-04,0
"Q05682",5.54e+09,5.31e+09,5.69e+09,5.22e+09,5.71e+09,5.45e+09,5.12e+09,5.08e+09,4.59e+09,4.73e+09,4.72e+09,4.14e+09,4.71e+09,4.29e+09,4.07e+09,4.84e+09,5.02e+09,5.12e+09,0.4187,0.0267,0.0012,3e-04,0.0169
"P12956",6.33e+09,6.39e+09,6.16e+09,5.93e+09,6.27e+09,5.7e+09,7.06e+09,6.94e+09,7.36e+09,6.56e+09,6.58e+09,6.37e+09,6.01e+09,5.69e+09,5.8e+09,4.99e+09,4.85e+09,5.02e+09,0.1232,0.0016,0.0931,0.0111,0
"P19338",5.23e+09,5.89e+09,6.7e+09,7.85e+09,7.2e+09,6.6e+09,7.12e+09,7.21e+09,6.6e+09,7.18e+09,6.83e+09,7e+09,6.15e+09,5.81e+09,6.07e+09,5.4e+09,4.02e+09,5.35e+09,0.0826,0.0563,0.0374,0.2116,0.0157
"Q8IVF2",1.94e+09,1.78e+09,1.89e+09,2.3e+09,2.22e+09,2.05e+09,4.87e+09,4.9e+09,4.97e+09,7.21e+09,6.9e+09,6.26e+09,6.72e+09,6.41e+09,6.23e+09,4.8e+09,4.8e+09,5.05e+09,0.0081,0,0,0,0
"P52209",3.09e+09,3.18e+09,2.99e+09,3.35e+09,3.34e+09,3.21e+09,3.9e+09,4.05e+09,4.08e+09,4.59e+09,4.71e+09,4.43e+09,4.58e+09,4.67e+09,4.75e+09,4.7e+09,4.8e+09,4.97e+09,0.0806,0,0,0,0
"P05388",6.32e+09,6.98e+09,7.18e+09,6.48e+09,5.73e+09,6.55e+09,5.21e+09,4.94e+09,5.36e+09,5.36e+09,5.39e+09,5.68e+09,5.55e+09,5.31e+09,5.78e+09,4.85e+09,4.77e+09,4.84e+09,0.1104,1e-04,4e-04,5e-04,0
"P33176",3.3e+09,2.84e+09,2.94e+09,2.81e+09,3.03e+09,2.61e+09,2.86e+09,2.92e+09,2.7e+09,3.89e+09,3.75e+09,3.18e+09,4.75e+09,4.4e+09,4.07e+09,4.84e+09,4.4e+09,5.18e+09,0.1839,0.1144,0.0044,0,0
"P63241",4.5e+09,4.57e+09,4.4e+09,5.14e+09,6.09e+09,5.15e+09,5.23e+09,5.48e+09,4.71e+09,5e+09,4.64e+09,3.78e+09,5.16e+09,4.45e+09,4.76e+09,4.79e+09,4.49e+09,5.13e+09,0.0132,0.0196,0.2152,0.078,0.0522
"Q02878",6.52e+09,6.15e+09,5.82e+09,6.08e+09,6.69e+09,5.6e+09,5e+09,5e+09,4.77e+09,5.19e+09,4.99e+09,4.36e+09,5.35e+09,5.18e+09,4.66e+09,4.87e+09,4.55e+09,4.92e+09,0.4159,1e-04,0,1e-04,0
"Q99878",5.62e+09,4.54e+09,6.76e+09,5.33e+09,6.52e+09,5.23e+09,7.26e+09,8.18e+09,6.69e+09,7.95e+09,7.89e+09,6.04e+09,8.5e+09,5.46e+09,4.3e+09,4.64e+09,4.3e+09,5.29e+09,0.4403,0.0667,0.0532,0.1948,0.0715
"P04843",4.16e+09,4.38e+09,4.2e+09,4.56e+09,4.36e+09,4.72e+09,4.74e+09,4.36e+09,4.64e+09,4.48e+09,4.59e+09,4.43e+09,4.51e+09,4.53e+09,5.06e+09,4.84e+09,4.54e+09,4.74e+09,0.132,0.0478,0.0607,0.0109,0.0067
"P16401",3.75e+09,4.38e+09,4.86e+09,5.23e+09,5.48e+09,4.21e+09,7.37e+09,7.71e+09,6.6e+09,7.3e+09,6.8e+09,5.42e+09,6.01e+09,5.29e+09,4.87e+09,4.99e+09,4.08e+09,4.98e+09,0.2231,0.0013,0.0035,0.0327,0.1026
"P00568",6.89e+08,7.24e+08,6.84e+08,7.02e+08,7.38e+08,7.78e+08,1.03e+09,1.01e+09,1.01e+09,1.73e+09,1.81e+09,1.7e+09,3.8e+09,3.39e+09,3.28e+09,4.86e+09,4.36e+09,4.78e+09,0.1857,0,0,0,0
"P23396",6.19e+09,6.22e+09,5.66e+09,5.85e+09,7.07e+09,5.7e+09,4.88e+09,4.91e+09,4.78e+09,5.59e+09,5.09e+09,4.88e+09,5.33e+09,4.54e+09,4.7e+09,4.63e+09,4.54e+09,4.82e+09,0.3373,6e-04,0.0035,3e-04,0
"Q9Y4L1",2.98e+09,2.83e+09,2.74e+09,2.78e+09,3.01e+09,2.81e+09,2.41e+09,2.45e+09,2.36e+09,3.2e+09,2.96e+09,2.92e+09,4.69e+09,4.35e+09,4.55e+09,4.61e+09,4.67e+09,4.68e+09,0.4293,4e-04,0.0394,0,0
"Q9BSJ8",2.43e+09,2.34e+09,2.4e+09,2.35e+09,2.54e+09,2.36e+09,2.25e+09,2.33e+09,2.33e+09,3.58e+09,3.59e+09,3.55e+09,4.39e+09,4.45e+09,4.64e+09,4.61e+09,4.61e+09,4.72e+09,0.3918,0.1292,0,0,0
"P40227",5.14e+09,5.21e+09,4.95e+09,5.14e+09,5.01e+09,4.67e+09,4.31e+09,4.23e+09,4.3e+09,4.4e+09,4.48e+09,3.93e+09,4.56e+09,4.53e+09,4.37e+09,4.71e+09,4.42e+09,4.67e+09,0.2372,2e-04,1e-04,8e-04,0.0018
"Q16643",4.54e+09,4.08e+09,4.28e+09,4e+09,4.67e+09,4.21e+09,4.03e+09,4.29e+09,3.96e+09,4.93e+09,4.89e+09,4.54e+09,5.31e+09,4.78e+09,4.69e+09,4.44e+09,4.49e+09,4.83e+09,0.447,0.1514,0.0237,0.0084,0.0491
"P30086",3.21e+09,3.03e+09,3.23e+09,3.83e+09,4.11e+09,3.92e+09,4.24e+09,4.61e+09,4.37e+09,4.34e+09,4.57e+09,4.75e+09,4.25e+09,4.83e+09,4.82e+09,4.6e+09,4.43e+09,4.61e+09,0.0019,0,0,0,0
"P60842",7.72e+09,7.92e+09,7.45e+09,7.77e+09,8.53e+09,7.36e+09,5.64e+09,5.76e+09,5.99e+09,5.78e+09,5.51e+09,5.31e+09,5.16e+09,4.77e+09,5.05e+09,4.63e+09,4.46e+09,4.5e+09,0.3252,0,0,0,0
"Q99497",3.08e+09,3.11e+09,3.44e+09,3.69e+09,3.54e+09,3.97e+09,3.94e+09,4.18e+09,3.83e+09,3.87e+09,3.99e+09,3.97e+09,4.13e+09,4.3e+09,4.14e+09,4.53e+09,4.67e+09,4.33e+09,0.0198,6e-04,6e-04,1e-04,0
"P05413",35800000,12900000,12800000,1.51e+08,1.1e+08,1.7e+08,2.64e+08,2.72e+08,3.16e+08,6.19e+08,5.47e+08,5.06e+08,2.12e+09,1.9e+09,2.02e+09,4.59e+09,4.73e+09,4.16e+09,3e-04,0,0,0,0
"P48735",1.26e+09,1.27e+09,1.24e+09,1.45e+09,1.51e+09,1.44e+09,2.06e+09,2.12e+09,2.07e+09,2.74e+09,2.8e+09,2.68e+09,3.59e+09,3.7e+09,3.6e+09,4.49e+09,4.26e+09,4.64e+09,0.0013,0,0,0,0
"Q15084",3.08e+09,2.95e+09,3.06e+09,2.79e+09,2.93e+09,3.21e+09,2.82e+09,2.81e+09,2.54e+09,2.95e+09,2.97e+09,2.69e+09,4.26e+09,4.09e+09,4.25e+09,4.17e+09,4.57e+09,4.49e+09,0.3677,0.0163,0.0699,0,0
"P23246",6.06e+09,5.81e+09,5.49e+09,6.14e+09,6.23e+09,5.64e+09,6.84e+09,6.34e+09,6.23e+09,5.94e+09,5.91e+09,5.52e+09,5.29e+09,5.25e+09,4.96e+09,4.28e+09,4.47e+09,4.33e+09,0.2065,0.0028,0.2441,0.0013,0
"P62701",5.81e+09,5.47e+09,5.04e+09,5.6e+09,7.18e+09,4.94e+09,5.3e+09,5.04e+09,4.84e+09,5.23e+09,5.08e+09,4.47e+09,5.07e+09,4.45e+09,4.14e+09,4.25e+09,4.09e+09,4.65e+09,0.1975,0.1136,0.0415,0.0037,6e-04
"P07339",2.72e+09,2.69e+09,2.6e+09,3.1e+09,3.33e+09,3.05e+09,5.35e+09,5.12e+09,5.22e+09,5.61e+09,5.29e+09,4.17e+09,4.51e+09,4.05e+09,4.17e+09,4.18e+09,4.09e+09,4.46e+09,0.0122,0,0,0,0
"Q12906",4.42e+09,4.28e+09,4.5e+09,4.79e+09,4.42e+09,4.41e+09,5.85e+09,5.6e+09,6.06e+09,5.54e+09,5.51e+09,4.83e+09,4.69e+09,5e+09,4.73e+09,4.23e+09,4.24e+09,4.23e+09,0.2865,0,4e-04,0.0153,0.0694
"Q9NZM1",6.41e+09,6.28e+09,6.32e+09,6.03e+09,6.22e+09,5.82e+09,5.9e+09,5.85e+09,5.73e+09,5.94e+09,5.85e+09,5.42e+09,4.93e+09,4.84e+09,4.86e+09,4.17e+09,4.13e+09,4.36e+09,0.1219,0.0105,0.0029,0,0
"O43852",4.04e+09,3.92e+09,4.13e+09,4.98e+09,4.88e+09,5.14e+09,4.5e+09,4.66e+09,4.41e+09,4.13e+09,4.28e+09,4.6e+09,3.82e+09,4.38e+09,4.44e+09,4.22e+09,4.29e+09,4.14e+09,0.001,0.0074,0.0293,0.0796,0.0524
"Q13200",4.64e+09,4.28e+09,4.27e+09,4.45e+09,4.58e+09,4.31e+09,3.87e+09,3.92e+09,4.04e+09,4.14e+09,4.1e+09,3.68e+09,4.34e+09,4.19e+09,4.04e+09,4.14e+09,4.11e+09,4.33e+09,0.3912,0.0111,0.0094,0.0693,0.0534
"P39023",5.15e+09,4.65e+09,4.83e+09,5.24e+09,4.95e+09,4.74e+09,4.37e+09,3.93e+09,4.29e+09,4.39e+09,4.4e+09,4.07e+09,4.53e+09,4.25e+09,3.87e+09,4.29e+09,3.99e+09,4.3e+09,0.3364,0.0012,0.0021,7e-04,4e-04
"P30837",6.46e+08,7.03e+08,6.9e+08,7.91e+08,8.03e+08,7.04e+08,2.03e+09,2.12e+09,1.92e+09,3.22e+09,3.19e+09,2.71e+09,4.22e+09,3.61e+09,3.71e+09,4.16e+09,4.04e+09,4.36e+09,0.0807,0,0,0,0
"O00499",6.63e+08,5.33e+08,5.59e+08,8.52e+08,8.43e+08,8.2e+08,1.08e+09,1.05e+09,1.04e+09,2.32e+09,2.17e+09,2.29e+09,4.03e+09,3.88e+09,3.65e+09,4.15e+09,4.03e+09,4.39e+09,6e-04,0,0,0,0
"Q9UHQ9",8.38e+08,8.24e+08,7.87e+08,1.05e+09,1.07e+09,1.13e+09,2e+09,2.08e+09,2.04e+09,3.25e+09,3.06e+09,3.24e+09,4.03e+09,3.7e+09,4.03e+09,4.02e+09,4.05e+09,4.31e+09,3e-04,0,0,0,0
"P55786",2.76e+09,2.65e+09,2.61e+09,3.05e+09,3.16e+09,2.95e+09,3.72e+09,3.77e+09,3.94e+09,4.14e+09,4.15e+09,4.04e+09,4.19e+09,4.19e+09,4.07e+09,4.03e+09,4.16e+09,4.07e+09,0.0058,0,0,0,0
"P52272",4.68e+09,4.54e+09,4.4e+09,4.77e+09,5.25e+09,4.53e+09,6.1e+09,6.04e+09,6.09e+09,5.91e+09,5.79e+09,5.03e+09,5.01e+09,4.55e+09,4.34e+09,4e+09,3.94e+09,4.3e+09,0.1359,0,2e-04,0.1648,0.0049
"Q9UHD8",2.68e+09,2.59e+09,2.45e+09,2.71e+09,2.89e+09,2.55e+09,3.85e+09,4.24e+09,3.68e+09,4.52e+09,4.44e+09,3.65e+09,4.47e+09,4.33e+09,3.97e+09,3.96e+09,3.98e+09,4.3e+09,0.1878,0,0,0,0
"P12883",9440000,7890000,31900000,65500000,9080000,9510000,5650000,6550000,5580000,2.69e+08,2.88e+08,2.04e+08,1.04e+09,1.36e+09,1.18e+09,3.99e+09,3.44e+09,4.65e+09,0.3429,0.0757,1e-04,0,0
"Q8WX93",5.33e+09,4.78e+09,4.94e+09,5.69e+09,5.8e+09,5.74e+09,4.14e+09,4.31e+09,4.39e+09,4.06e+09,3.79e+09,3.78e+09,3.58e+09,3.62e+09,3.55e+09,3.75e+09,4.06e+09,3.98e+09,0.0248,0.0034,1e-04,0,1e-04
"P50991",4.01e+09,4.08e+09,4.01e+09,4.35e+09,4.32e+09,4.13e+09,3.47e+09,3.43e+09,3.59e+09,3.86e+09,3.81e+09,3.6e+09,4e+09,3.77e+09,4.06e+09,4.1e+09,3.71e+09,3.96e+09,0.1253,0.001,0.0207,0.1343,0.0821
"Q7KZF4",3.78e+09,3.72e+09,3.58e+09,4.21e+09,4.03e+09,3.93e+09,3.39e+09,3.36e+09,3.63e+09,3.48e+09,3.42e+09,3.52e+09,3.81e+09,3.89e+09,4.09e+09,3.9e+09,3.9e+09,3.88e+09,0.0391,0.0472,0.0385,0.0333,0.0332
"P23284",5.22e+09,4.67e+09,4.57e+09,4.9e+09,5.83e+09,4.52e+09,4.61e+09,4.76e+09,4.2e+09,4.55e+09,4.15e+09,3.54e+09,4.25e+09,3.57e+09,3.4e+09,3.98e+09,3.63e+09,4.06e+09,0.266,0.1208,0.0046,3e-04,6e-04
"Q00839",5.65e+09,5.14e+09,4.7e+09,5.16e+09,6.06e+09,4.46e+09,5.8e+09,5.98e+09,5.81e+09,6.01e+09,5.58e+09,4.24e+09,4.87e+09,4.18e+09,3.81e+09,3.88e+09,3.41e+09,4.35e+09,0.4405,0.0452,0.2173,0.0068,4e-04
"P62979",3.99e+09,3.18e+09,2.75e+09,4.43e+09,4.72e+09,3.57e+09,3.57e+09,3.68e+09,3.72e+09,4.04e+09,3.36e+09,2.55e+09,4.51e+09,3.1e+09,2.55e+09,4.01e+09,3.51e+09,4.02e+09,0.0265,0.099,0.2434,0.2249,0.0184
"P12236",3.7e+09,3.81e+09,3.88e+09,4.42e+09,3.75e+09,4.25e+09,4.02e+09,4.13e+09,4.6e+09,4.26e+09,4.24e+09,4.41e+09,3.64e+09,4.3e+09,4.33e+09,3.77e+09,4.07e+09,3.68e+09,0.0925,0.0148,0.006,0.0383,0.1452
"O00410",5.3e+09,4.81e+09,4.78e+09,4.74e+09,5.08e+09,5.02e+09,4.56e+09,4.61e+09,4.48e+09,4.62e+09,4.4e+09,4.35e+09,4.21e+09,4.03e+09,4.04e+09,3.71e+09,3.79e+09,4e+09,0.4448,0.0379,0.012,4e-04,0
"O60506",4.56e+09,4.74e+09,5.02e+09,4.76e+09,5.1e+09,4.53e+09,4.55e+09,4.74e+09,4.48e+09,4.4e+09,4.43e+09,4.2e+09,4.2e+09,3.93e+09,3.93e+09,3.94e+09,3.68e+09,3.83e+09,0.4421,0.1808,0.0289,0.0017,2e-04
"P13591",4.09e+08,4.94e+08,4.65e+08,1.17e+09,1.12e+09,1.09e+09,1.96e+09,1.94e+09,1.78e+09,3.45e+09,3.19e+09,2.65e+09,4.02e+09,3.74e+09,3.58e+09,3.89e+09,3.38e+09,4.12e+09,0,0,0,0,0
"P34932",3.46e+09,3.36e+09,3.37e+09,3.47e+09,3.55e+09,3.56e+09,3.4e+09,3.4e+09,3.39e+09,3.85e+09,3.72e+09,3.68e+09,3.74e+09,3.64e+09,3.76e+09,3.77e+09,3.71e+09,3.89e+09,0.1687,0.3282,0.0018,0.0027,5e-04
"O75369",1.68e+10,1.62e+10,1.62e+10,1.38e+10,1.54e+10,1.38e+10,1.34e+10,1.31e+10,1.23e+10,1.01e+10,9.84e+09,8.6e+09,6.01e+09,5.78e+09,5.59e+09,3.72e+09,3.66e+09,3.95e+09,0.0132,1e-04,0,0,0
"P11940",6.33e+09,6.28e+09,6.01e+09,5.56e+09,5.85e+09,5.33e+09,4.08e+09,4.02e+09,4.11e+09,4.52e+09,4.36e+09,3.96e+09,4.38e+09,4.03e+09,3.9e+09,3.8e+09,3.54e+09,3.97e+09,0.0262,0,0,0,0
"P63244",4.19e+09,3.7e+09,4.1e+09,5.24e+09,4.63e+09,5.37e+09,3.55e+09,3.49e+09,3.96e+09,3.81e+09,3.96e+09,4.79e+09,3.66e+09,4.13e+09,4.47e+09,3.76e+09,3.94e+09,3.58e+09,0.0068,0.0805,0.1409,0.1879,0.0653
"Q14152",4.58e+09,4.29e+09,4.18e+09,4.4e+09,4.4e+09,4.15e+09,3.66e+09,3.58e+09,3.69e+09,3.89e+09,4.07e+09,3.59e+09,4e+09,3.76e+09,3.74e+09,3.73e+09,3.63e+09,3.86e+09,0.4166,4e-04,0.0025,0.0018,4e-04
"P53396",4.46e+09,4.37e+09,4.25e+09,4.35e+09,4.62e+09,4.17e+09,3.18e+09,3.14e+09,3.2e+09,3.05e+09,2.84e+09,2.64e+09,3.42e+09,3.38e+09,3.31e+09,3.67e+09,3.71e+09,3.84e+09,0.4335,0,0,0,1e-04
"Q08211",3.84e+09,3.69e+09,3.4e+09,4.01e+09,4.21e+09,3.66e+09,4.08e+09,4.03e+09,4.29e+09,4.3e+09,4.31e+09,3.95e+09,4.09e+09,3.84e+09,3.93e+09,3.72e+09,3.66e+09,3.76e+09,0.0882,0.0068,0.0028,0.0226,0.12
"Q13838",3.32e+09,2.85e+09,2.82e+09,3.17e+09,3.41e+09,3.17e+09,3.92e+09,3.72e+09,3.9e+09,4.15e+09,3.87e+09,3.51e+09,4.01e+09,3.88e+09,3.95e+09,3.72e+09,3.62e+09,3.76e+09,0.1383,4e-04,3e-04,1e-04,4e-04
"P08865",4.75e+09,5.92e+09,5.74e+09,5e+09,4.49e+09,5.28e+09,4.29e+09,4.09e+09,4.48e+09,3.92e+09,3.99e+09,3.86e+09,3.56e+09,4.1e+09,4.07e+09,3.71e+09,3.98e+09,3.36e+09,0.1657,0.0048,4e-04,3e-04,1e-04
"P13489",2.13e+09,2.27e+09,2.32e+09,2.37e+09,2.52e+09,2.28e+09,2.74e+09,2.91e+09,2.83e+09,3.19e+09,3.12e+09,3.16e+09,3.5e+09,3.47e+09,3.44e+09,3.57e+09,3.67e+09,3.72e+09,0.1091,0,0,0,0
"P62906",4.36e+09,4.09e+09,3.91e+09,4.39e+09,5.15e+09,4.08e+09,3.66e+09,3.69e+09,3.72e+09,3.89e+09,3.8e+09,3.4e+09,4.32e+09,3.6e+09,3.46e+09,3.6e+09,3.46e+09,3.72e+09,0.0974,0.0246,0.0167,0.0316,0.0036
"P15880",4.28e+09,4.05e+09,3.71e+09,4.83e+09,4.6e+09,4.65e+09,3.82e+09,4.05e+09,4.21e+09,4.01e+09,3.88e+09,3.66e+09,3.91e+09,3.73e+09,3.58e+09,3.5e+09,3.56e+09,3.65e+09,0.0159,0.3222,0.1178,0.0485,0.0072
"Q53GG5",6.36e+08,5.51e+08,5.82e+08,9.43e+08,1.11e+09,1.04e+09,1.5e+09,1.58e+09,1.47e+09,2.32e+09,2.2e+09,1.94e+09,2.81e+09,3.24e+09,3.27e+09,3.5e+09,3.4e+09,3.71e+09,1e-04,0,0,0,0
"P17987",3.64e+09,3.73e+09,3.53e+09,3.56e+09,3.86e+09,3.54e+09,3.12e+09,3.19e+09,3.3e+09,3.55e+09,3.54e+09,3.29e+09,3.51e+09,3.38e+09,3.54e+09,3.59e+09,3.45e+09,3.51e+09,0.4272,0.002,0.052,0.0589,0.066
"P19105",2.49e+09,2.94e+09,2.82e+09,3.89e+09,3.9e+09,3.29e+09,3.55e+09,3.66e+09,3.59e+09,3.56e+09,3.23e+09,3.22e+09,3.45e+09,3.16e+09,3.5e+09,3.47e+09,3.49e+09,3.54e+09,0.0048,0.0015,0.0063,0.004,0.001
"P05387",5.02e+09,4.75e+09,4.91e+09,4.24e+09,5.05e+09,4.18e+09,3.67e+09,3.79e+09,3.29e+09,4.2e+09,4.05e+09,3.69e+09,4.18e+09,3.43e+09,3.41e+09,3.79e+09,3.16e+09,3.52e+09,0.1348,1e-04,0.0015,1e-04,0
"Q14974",5.12e+09,4.44e+09,4.33e+09,4.55e+09,4.94e+09,4.67e+09,3.85e+09,4.15e+09,3.93e+09,3.81e+09,3.64e+09,3.68e+09,3.83e+09,3.92e+09,3.7e+09,3.46e+09,3.48e+09,3.5e+09,0.3816,0.0158,0.0016,0.0028,1e-04
"P49411",2.75e+09,2.75e+09,2.68e+09,2.7e+09,2.8e+09,2.53e+09,3.76e+09,3.65e+09,3.34e+09,3.96e+09,3.82e+09,3.29e+09,3.67e+09,3.42e+09,3.33e+09,3.43e+09,3.27e+09,3.73e+09,0.357,0,0,0,0
"P07814",3.2e+09,2.98e+09,2.92e+09,3.13e+09,3.31e+09,2.99e+09,2.74e+09,2.81e+09,2.77e+09,3.01e+09,2.9e+09,2.84e+09,3.33e+09,3.21e+09,3.22e+09,3.45e+09,3.33e+09,3.59e+09,0.2459,0.0219,0.1034,0.0265,0.0011
"P40939",2.25e+09,2.1e+09,2.06e+09,2.36e+09,2.43e+09,2.25e+09,2.79e+09,2.67e+09,2.92e+09,3.15e+09,3.16e+09,3.2e+09,3.32e+09,3.11e+09,3.29e+09,3.53e+09,3.43e+09,3.41e+09,0.0463,0,0,0,0
"P40261",3.04e+09,2.99e+09,2.94e+09,3.97e+09,3.57e+09,4.28e+09,3.92e+09,3.62e+09,4.11e+09,3.11e+09,3.22e+09,3.27e+09,2.88e+09,3.14e+09,3.14e+09,3.31e+09,3.75e+09,3.28e+09,8e-04,1e-04,0.0565,0.17,0.0026
"Q0ZGT2",1.65e+09,1.7e+09,1.73e+09,1.83e+09,1.83e+09,1.82e+09,2.03e+09,1.99e+09,1.87e+09,2.23e+09,2.2e+09,2.02e+09,3.05e+09,2.85e+09,2.74e+09,3.32e+09,3.41e+09,3.59e+09,0.0939,0.0024,1e-04,0,0
"P43243",3.66e+09,3.44e+09,3.46e+09,3.22e+09,3.69e+09,3.11e+09,3.79e+09,3.78e+09,3.66e+09,4.09e+09,4.07e+09,3.54e+09,4.18e+09,3.62e+09,3.76e+09,3.33e+09,3.34e+09,3.58e+09,0.1956,0.0888,0.0169,0.0219,0.0997
"Q07020",4.71e+09,4.58e+09,4.19e+09,4.61e+09,5.22e+09,4.07e+09,3.94e+09,4.23e+09,3.54e+09,4.6e+09,4.33e+09,3.54e+09,4.33e+09,3.46e+09,3.52e+09,3.27e+09,3.11e+09,3.86e+09,0.3643,0.0235,0.068,0.0048,2e-04
"P61247",4.15e+09,3.98e+09,3.7e+09,4.14e+09,5.01e+09,3.73e+09,3.76e+09,3.43e+09,3.46e+09,3.97e+09,3.89e+09,3.36e+09,3.68e+09,3.64e+09,3.64e+09,3.44e+09,3.19e+09,3.56e+09,0.1409,0.0325,0.0925,0.0493,0.0029
"P46821",4.91e+09,4.55e+09,4.4e+09,3.98e+09,4.3e+09,3.79e+09,2.13e+09,2.17e+09,2.07e+09,2.08e+09,1.97e+09,1.85e+09,2.49e+09,2.27e+09,2.37e+09,3.28e+09,3.23e+09,3.47e+09,0.0151,0,0,0,0
"P00387",3.3e+09,3.17e+09,3.33e+09,3.67e+09,3.68e+09,3.47e+09,3.53e+09,3.51e+09,3.73e+09,3.54e+09,3.41e+09,3.42e+09,3.25e+09,3.16e+09,3.26e+09,3.25e+09,3.42e+09,3.3e+09,0.0221,0.0087,0.0369,0.1696,0.1156
"P98160",1.24e+09,1.31e+09,1.27e+09,2.53e+09,2.18e+09,2.34e+09,1.64e+09,1.73e+09,1.74e+09,2.12e+09,1.95e+09,1.99e+09,2.69e+09,2.62e+09,2.45e+09,3.36e+09,3.3e+09,3.29e+09,0,0,0,0,0
"O15460",1.28e+09,1.36e+09,1.3e+09,2.4e+09,2.26e+09,2.4e+09,2.66e+09,2.72e+09,2.69e+09,2.72e+09,2.68e+09,2.56e+09,2.84e+09,2.76e+09,2.96e+09,3.25e+09,3.35e+09,3.34e+09,0,0,0,0,0
"P49588",2.05e+09,2.07e+09,2.02e+09,2.26e+09,2.24e+09,2.24e+09,2.1e+09,2.1e+09,2.2e+09,2.45e+09,2.39e+09,2.31e+09,2.94e+09,3.08e+09,3.07e+09,3.19e+09,3.46e+09,3.23e+09,0.0221,0.0885,2e-04,0,0
"P16615",1.61e+09,1.54e+09,1.55e+09,1.62e+09,1.66e+09,1.53e+09,1.65e+09,1.58e+09,1.61e+09,2.7e+09,2.72e+09,2.54e+09,3.77e+09,3.81e+09,3.72e+09,3.19e+09,3.28e+09,3.39e+09,0.2981,0.1621,0,0,0
"Q14103",2.42e+09,2.53e+09,2.68e+09,2.84e+09,3.15e+09,2.85e+09,3.82e+09,3.95e+09,3.82e+09,3.79e+09,3.5e+09,3.29e+09,3.37e+09,3.31e+09,2.97e+09,3.41e+09,3.18e+09,3.12e+09,0.0467,0,1e-04,7e-04,4e-04
"Q8WUY3",1.3e+09,1.25e+09,1.24e+09,1.67e+09,1.52e+09,1.52e+09,1.59e+09,1.6e+09,1.7e+09,2.75e+09,2.67e+09,2.59e+09,3.15e+09,3.2e+09,3.18e+09,3.2e+09,3.2e+09,3.26e+09,3e-04,0,0,0,0
"O00159",2.92e+09,2.86e+09,2.73e+09,2.97e+09,3.11e+09,2.83e+09,3.5e+09,3.48e+09,3.45e+09,3.62e+09,3.47e+09,3.29e+09,3.22e+09,2.97e+09,2.9e+09,3.2e+09,3.04e+09,3.39e+09,0.1842,1e-04,1e-04,0.0267,0.0011
"P29401",5.35e+09,4.92e+09,4.67e+09,4.19e+09,4.48e+09,4.2e+09,5.24e+09,5.02e+09,5.33e+09,4.61e+09,4.72e+09,4.45e+09,3.64e+09,3.44e+09,3.54e+09,3.22e+09,3.14e+09,3.27e+09,0.0181,0.1513,0.0369,0,0
"Q15365",3.08e+09,2.66e+09,2.91e+09,3.13e+09,2.69e+09,2.88e+09,3.24e+09,3.4e+09,3.23e+09,3.49e+09,3.36e+09,3.23e+09,3.33e+09,3.41e+09,3.27e+09,3.11e+09,3.16e+09,3.29e+09,0.4405,0.0115,0.0037,0.0038,0.0131
"Q03001",2.9e+09,2.77e+09,2.69e+09,2.9e+09,3.02e+09,2.76e+09,2.45e+09,2.46e+09,2.39e+09,3.74e+09,3.69e+09,3.47e+09,3.98e+09,3.74e+09,3.8e+09,3.19e+09,3.11e+09,3.24e+09,0.201,8e-04,0,0,3e-04
"Q92743",1.65e+09,1.99e+09,1.91e+09,2.07e+09,2.18e+09,1.98e+09,4.95e+09,5.38e+09,5.63e+09,5.63e+09,5.07e+09,4.14e+09,3.35e+09,4.85e+09,4.79e+09,3.16e+09,3.34e+09,3.01e+09,0.1414,0,0,0,0
"P31939",3.81e+09,3.66e+09,3.57e+09,3.59e+09,3.95e+09,3.48e+09,3.54e+09,3.54e+09,3.48e+09,3.56e+09,3.5e+09,3.17e+09,3.35e+09,3.37e+09,3.24e+09,3.13e+09,3.1e+09,3.1e+09,0.4405,0.0984,0.0155,0.0034,1e-04
"P30153",3.31e+09,2.99e+09,2.98e+09,3.15e+09,3.36e+09,3.06e+09,2.72e+09,2.79e+09,2.92e+09,2.83e+09,2.84e+09,2.9e+09,2.97e+09,3.05e+09,3e+09,3.12e+09,3.07e+09,3.12e+09,0.3115,0.0355,0.0434,0.1506,0.1634
"Q9UKY7",2.82e+09,2.57e+09,2.56e+09,2.79e+09,2.96e+09,2.4e+09,2.32e+09,2.41e+09,2.14e+09,2.95e+09,2.88e+09,2.11e+09,3.41e+09,3.03e+09,2.6e+09,2.98e+09,2.88e+09,3.45e+09,0.3887,0.0268,0.223,0.0278,0.0087
"Q86VP6",2.76e+09,2.54e+09,2.53e+09,2.82e+09,2.97e+09,2.81e+09,3.28e+09,3.26e+09,3.38e+09,3.44e+09,3.42e+09,3.2e+09,3.31e+09,2.91e+09,3.09e+09,3.11e+09,2.99e+09,3.21e+09,0.048,1e-04,0,3e-04,2e-04
"P02452",9.65e+08,1.01e+09,9.76e+08,2.11e+09,2.13e+09,1.83e+09,1.95e+09,2.06e+09,1.94e+09,6.64e+09,5.93e+09,4.97e+09,5.36e+09,4.68e+09,4.29e+09,3.17e+09,2.73e+09,3.37e+09,0,0,0,0,0
"P62269",4.02e+09,3.79e+09,3.52e+09,3.83e+09,4.33e+09,3.74e+09,3.44e+09,3.13e+09,3.09e+09,3.45e+09,3.55e+09,2.77e+09,3.43e+09,2.86e+09,3.06e+09,3.05e+09,2.77e+09,3.25e+09,0.2547,0.008,0.0061,0.0014,4e-04
"P62424",4.68e+09,4.38e+09,3.91e+09,4.11e+09,4.56e+09,3.9e+09,3.34e+09,3.36e+09,3.2e+09,3.86e+09,3.53e+09,3.19e+09,3.59e+09,3.45e+09,3.41e+09,3e+09,2.65e+09,3.41e+09,0.3509,9e-04,0.003,0.0019,0
"Q8NC51",4.38e+09,3.81e+09,3.78e+09,4.42e+09,5.29e+09,3.33e+09,3.75e+09,3.88e+09,3.59e+09,4.03e+09,4.02e+09,3.2e+09,4.28e+09,3.37e+09,3.07e+09,3.14e+09,2.47e+09,3.44e+09,0.2744,0.1865,0.1311,0.0559,0.0014
"P09972",2.24e+09,1.73e+09,2.22e+09,2.45e+09,2.32e+09,2.45e+09,1.31e+09,2.26e+09,1.36e+09,2.06e+09,2.13e+09,2.14e+09,3.34e+09,2.54e+09,2.55e+09,2.71e+09,2.95e+09,3.39e+09,0.1982,0.0425,0.214,0.0128,0.0032
"Q99832",3.43e+09,3.45e+09,3.29e+09,3.06e+09,3.27e+09,3.01e+09,2.72e+09,2.84e+09,2.74e+09,3.12e+09,3.16e+09,2.91e+09,3.14e+09,3.04e+09,3e+09,3.03e+09,3.02e+09,3e+09,0.0237,0,0.0018,0.0015,4e-04
"Q16555",3.53e+09,3.46e+09,3.49e+09,3.6e+09,3.43e+09,3.53e+09,3.86e+09,3.98e+09,3.97e+09,3.71e+09,3.56e+09,3.47e+09,3.05e+09,2.97e+09,3.05e+09,2.94e+09,3.01e+09,3.06e+09,0.4098,0.001,0.1161,1e-04,1e-04
"O00231",3.07e+09,3.11e+09,3e+09,2.78e+09,2.84e+09,2.55e+09,2.93e+09,2.88e+09,2.79e+09,2.92e+09,2.92e+09,2.48e+09,3.1e+09,2.75e+09,2.77e+09,3.1e+09,2.9e+09,3.01e+09,0.0221,0.0545,0.009,0.0363,0.1173
"P31943",4.09e+09,4.13e+09,4.08e+09,4.09e+09,4.33e+09,3.69e+09,4.72e+09,5.11e+09,4.64e+09,4.45e+09,4.22e+09,3.98e+09,3.62e+09,3.67e+09,3.57e+09,3.04e+09,2.97e+09,2.99e+09,0.3569,7e-04,0.1329,0.0017,0
"Q8WWI1",6.14e+09,5.51e+09,5.49e+09,5.29e+09,6.07e+09,5.26e+09,5.72e+09,5.65e+09,5.28e+09,5.09e+09,5.03e+09,4.24e+09,3.77e+09,3.63e+09,3.4e+09,2.95e+09,2.81e+09,3.15e+09,0.3227,0.2281,0.0022,0,0
"Q99798",1.49e+09,1.51e+09,1.5e+09,1.56e+09,1.51e+09,1.51e+09,1.95e+09,1.94e+09,1.95e+09,2.28e+09,2.22e+09,2.31e+09,2.64e+09,2.55e+09,2.51e+09,2.92e+09,2.93e+09,2.92e+09,0.3227,0,0,0,0
"P41252",2.12e+09,2.07e+09,2.11e+09,2.19e+09,2.34e+09,2.15e+09,2.13e+09,2.08e+09,2.11e+09,2.3e+09,2.19e+09,2.09e+09,2.69e+09,2.58e+09,2.58e+09,2.9e+09,2.87e+09,2.98e+09,0.1051,0.3072,0.0634,0,0
"Q15233",3.89e+09,3.6e+09,3.41e+09,3.49e+09,4.11e+09,3.34e+09,3.87e+09,3.84e+09,3.65e+09,4.14e+09,3.78e+09,3.17e+09,3.67e+09,3.02e+09,2.98e+09,2.85e+09,2.77e+09,3.07e+09,0.4534,0.1765,0.2095,0.0128,3e-04
"Q9NVA2",2.59e+09,2.66e+09,2.51e+09,2.52e+09,2.77e+09,2.46e+09,3.17e+09,3.25e+09,3.04e+09,3.27e+09,3.24e+09,3.02e+09,2.82e+09,2.72e+09,2.65e+09,2.86e+09,2.81e+09,3.01e+09,0.458,1e-04,0,0.0356,0.0012
"Q92616",2.97e+09,2.9e+09,2.89e+09,2.77e+09,2.69e+09,2.74e+09,2.56e+09,2.63e+09,2.65e+09,2.88e+09,2.89e+09,2.83e+09,2.98e+09,2.88e+09,3e+09,2.89e+09,2.89e+09,2.9e+09,0.0504,0.0013,0.143,0.1866,0.1265
"P46781",4.05e+09,3.91e+09,3.52e+09,4.01e+09,4.36e+09,3.85e+09,3.25e+09,3.22e+09,3.15e+09,3.46e+09,3.39e+09,3.02e+09,3.35e+09,3.23e+09,3.22e+09,2.97e+09,2.66e+09,3.03e+09,0.1688,0.0018,0.0029,0.0019,0
"P53618",3.82e+09,3.92e+09,3.87e+09,4.05e+09,3.98e+09,3.95e+09,3.11e+09,2.99e+09,3.2e+09,3.17e+09,3.1e+09,3.07e+09,3.01e+09,2.92e+09,2.9e+09,2.89e+09,2.87e+09,2.89e+09,0.231,0,0,0,0
"P53621",3.66e+09,3.8e+09,3.64e+09,3.85e+09,3.88e+09,3.84e+09,2.99e+09,3.11e+09,3.17e+09,3.12e+09,3.07e+09,3.21e+09,2.9e+09,2.83e+09,3.05e+09,2.93e+09,2.86e+09,2.86e+09,0.1881,2e-04,2e-04,0,0
"P42704",2.82e+09,2.94e+09,2.8e+09,2.72e+09,2.69e+09,2.66e+09,2.82e+09,2.82e+09,2.75e+09,2.88e+09,2.84e+09,2.69e+09,2.83e+09,2.76e+09,2.75e+09,2.9e+09,2.76e+09,2.98e+09,0.1019,0.2056,0.1599,0.1115,0.1464
"P04844",2.37e+09,2.68e+09,2.46e+09,2.85e+09,2.57e+09,2.91e+09,2.49e+09,2.42e+09,2.74e+09,2.51e+09,2.73e+09,2.92e+09,2.55e+09,2.78e+09,3.24e+09,2.94e+09,3.08e+09,2.61e+09,0.1282,0.2754,0.0685,0.0199,0.0105
"P13693",3.73e+09,3.28e+09,3.28e+09,3.41e+09,4.08e+09,3.14e+09,2.81e+09,3e+09,2.67e+09,3.13e+09,2.85e+09,2.12e+09,3.04e+09,2.75e+09,2.42e+09,2.94e+09,2.72e+09,2.97e+09,0.3752,0.0109,0.0019,0.0025,0.0064
"P62826",2.66e+09,3e+09,2.65e+09,3.52e+09,3.48e+09,3.87e+09,3.32e+09,3.09e+09,3.6e+09,2.9e+09,3.02e+09,3.48e+09,2.53e+09,3.28e+09,3.36e+09,2.84e+09,3.26e+09,2.52e+09,0.0098,0.0149,0.0414,0.0648,0.1244
"P17655",4.2e+09,4.01e+09,3.78e+09,3.73e+09,4.25e+09,3.68e+09,3.88e+09,3.95e+09,3.95e+09,3.71e+09,3.63e+09,3.55e+09,3.05e+09,3.07e+09,2.98e+09,2.86e+09,2.87e+09,2.88e+09,0.2991,0.2558,0.0138,0,0
"Q04637",3.36e+09,3.24e+09,3.14e+09,3.27e+09,3.37e+09,3.05e+09,2.41e+09,2.34e+09,2.34e+09,2.73e+09,2.69e+09,2.46e+09,3.08e+09,2.84e+09,2.8e+09,2.81e+09,2.71e+09,2.96e+09,0.4202,0,0,0.0022,4e-04
"Q86UP2",2.79e+09,2.76e+09,2.71e+09,2.98e+09,2.99e+09,2.66e+09,3.08e+09,3.04e+09,2.84e+09,3e+09,2.8e+09,2.59e+09,2.78e+09,2.63e+09,2.47e+09,2.86e+09,2.67e+09,2.93e+09,0.2113,0.0261,0.1846,0.0646,0.0962
"Q15417",3.82e+09,4.18e+09,3.92e+09,3.99e+09,4.43e+09,3.92e+09,3.25e+09,3.48e+09,3.32e+09,3.23e+09,3.04e+09,3.29e+09,2.93e+09,2.77e+09,2.87e+09,2.7e+09,2.9e+09,2.86e+09,0.2707,7e-04,1e-04,0,0
"P41250",2.3e+09,2.49e+09,2.29e+09,2.26e+09,2.39e+09,2.17e+09,1.96e+09,1.98e+09,2.03e+09,2.09e+09,2.06e+09,1.96e+09,2.4e+09,2.09e+09,2.24e+09,2.79e+09,2.85e+09,2.81e+09,0.2596,0.0013,0.0021,0.0673,3e-04
"P52565",3.93e+09,3.13e+09,3.36e+09,3.13e+09,4.1e+09,3.03e+09,3.03e+09,3.21e+09,2.97e+09,3.18e+09,3.09e+09,2.31e+09,3.08e+09,2.64e+09,2.52e+09,2.83e+09,2.66e+09,2.96e+09,0.4116,0.0993,0.0192,0.0088,0.01
"Q9UK76",1.5e+09,1.62e+09,1.56e+09,1.39e+09,1.64e+09,1.3e+09,1.58e+09,1.49e+09,1.34e+09,2.42e+09,2.23e+09,1.9e+09,3.11e+09,3.01e+09,2.66e+09,2.85e+09,2.4e+09,3.15e+09,0.2096,0.1666,3e-04,0,0
"Q9P2E9",6.65e+09,6.3e+09,6.45e+09,6.3e+09,6.62e+09,5.56e+09,5.01e+09,4.92e+09,4.54e+09,3.76e+09,3.68e+09,2.87e+09,3.12e+09,2.85e+09,2.57e+09,2.76e+09,2.56e+09,3.07e+09,0.2673,3e-04,0,0,0
"P21796",1.91e+09,1.88e+09,1.8e+09,2e+09,2.04e+09,2.28e+09,2.42e+09,2.32e+09,2.56e+09,2.63e+09,2.56e+09,3.11e+09,2.66e+09,2.68e+09,3.05e+09,2.82e+09,2.97e+09,2.6e+09,0.0816,7e-04,0,0,0
"P35232",2.44e+09,2.68e+09,2.62e+09,2.09e+09,2.14e+09,2.11e+09,2.96e+09,2.83e+09,2.74e+09,2.89e+09,3.03e+09,2.8e+09,2.97e+09,2.82e+09,2.78e+09,2.69e+09,2.77e+09,2.83e+09,0.0025,0.0216,0.0061,0.0102,0.0257
"P06753",2.14e+09,2.27e+09,2.75e+09,3.11e+09,3.29e+09,2.52e+09,2.66e+09,2.65e+09,2.63e+09,2.3e+09,2.03e+09,1.76e+09,2.26e+09,2.25e+09,1.96e+09,2.94e+09,2.51e+09,2.81e+09,0.1005,0.1533,0.0637,0.1137,0.0478
"Q8WUM4",3.32e+09,3.24e+09,3.07e+09,2.89e+09,3.18e+09,2.74e+09,2.91e+09,2.97e+09,2.84e+09,2.92e+09,2.89e+09,2.49e+09,2.94e+09,2.55e+09,2.55e+09,2.73e+09,2.62e+09,2.88e+09,0.064,0.0174,0.0015,3e-04,6e-04
"O95573",1.11e+09,1.13e+09,1.12e+09,1.41e+09,1.4e+09,1.33e+09,1.5e+09,1.45e+09,1.53e+09,1.62e+09,1.53e+09,1.49e+09,1.96e+09,2.16e+09,2.08e+09,2.68e+09,2.83e+09,2.72e+09,4e-04,0,0,0,0
"P35221",2.87e+09,2.81e+09,2.91e+09,3.16e+09,3.29e+09,3.06e+09,3.08e+09,3.13e+09,3.07e+09,3.48e+09,3.35e+09,3.29e+09,3.1e+09,3.16e+09,3.15e+09,2.77e+09,2.69e+09,2.74e+09,0.0164,0.0161,1e-04,0.0042,0.0344
"P07108",1.1e+09,9.87e+08,1.16e+09,1.94e+09,1.36e+09,1.93e+09,1.4e+09,1.36e+09,1.81e+09,1.3e+09,1.5e+09,2.1e+09,1.54e+09,2.33e+09,2.59e+09,2.74e+09,3.13e+09,2.34e+09,0.0054,0.0073,0.0021,0,0
"Q99460",2.65e+09,2.5e+09,2.54e+09,2.51e+09,2.44e+09,2.46e+09,2.38e+09,2.34e+09,2.44e+09,2.51e+09,2.52e+09,2.42e+09,2.85e+09,2.76e+09,2.77e+09,2.7e+09,2.67e+09,2.77e+09,0.1897,0.0201,0.0959,0.0045,0.0175
"Q01518",6.13e+09,5.57e+09,5.2e+09,4.87e+09,5.61e+09,4.67e+09,4.76e+09,4.49e+09,3.87e+09,3.96e+09,3.93e+09,3.18e+09,3.1e+09,2.95e+09,2.7e+09,2.62e+09,2.51e+09,2.99e+09,0.0974,8e-04,0,0,0
"Q9UMS6",5.83e+08,5.71e+08,5.96e+08,7.66e+08,8.82e+08,7.17e+08,1.32e+09,1.35e+09,1.2e+09,2.35e+09,2.11e+09,1.74e+09,3.22e+09,2.66e+09,2.48e+09,2.83e+09,2.48e+09,2.77e+09,0.0051,0,0,0,0
"Q16658",4.64e+09,4.12e+09,4.26e+09,4.31e+09,4.71e+09,4.35e+09,4.69e+09,4.47e+09,4.6e+09,4.73e+09,4.74e+09,4.59e+09,3.3e+09,3.34e+09,3.33e+09,2.67e+09,2.63e+09,2.74e+09,0.3301,0.1099,0.0394,0,0
"P46939",1.86e+09,1.73e+09,1.76e+09,2.07e+09,1.91e+09,2.03e+09,2.06e+09,2.13e+09,2.08e+09,2.53e+09,2.57e+09,2.45e+09,2.91e+09,2.94e+09,2.82e+09,2.66e+09,2.69e+09,2.64e+09,0.0132,5e-04,0,0,0
"P19367",2.85e+09,2.74e+09,2.73e+09,2.83e+09,3.05e+09,2.81e+09,3.35e+09,3.18e+09,3.26e+09,3.23e+09,3.12e+09,3e+09,2.74e+09,2.49e+09,2.49e+09,2.71e+09,2.46e+09,2.76e+09,0.1917,4e-04,0.0023,0.0132,0.0349
"Q14847",4.33e+09,4.25e+09,4.2e+09,3.71e+09,4.73e+09,3.87e+09,4.69e+09,4.6e+09,3.99e+09,4.07e+09,3.98e+09,2.87e+09,3.22e+09,2.64e+09,2.36e+09,2.56e+09,2.53e+09,2.81e+09,0.3315,0.2369,0.0156,0,0
"P13010",2.77e+09,2.87e+09,2.69e+09,3.24e+09,2.83e+09,3.16e+09,3.37e+09,2.97e+09,3.6e+09,3.05e+09,3.24e+09,3.27e+09,2.89e+09,2.96e+09,3.06e+09,2.72e+09,2.61e+09,2.56e+09,0.0886,0.004,0.0082,0.0591,0.0621
"P62277",3.37e+09,3.69e+09,3.6e+09,3.67e+09,3.36e+09,3.3e+09,2.94e+09,2.75e+09,3.04e+09,3.03e+09,3.12e+09,2.58e+09,2.94e+09,2.6e+09,2.56e+09,2.69e+09,2.45e+09,2.66e+09,0.3495,0.005,0.0031,3e-04,1e-04
"O00299",3.76e+09,3.92e+09,4e+09,3.55e+09,3.52e+09,3.16e+09,4.14e+09,3.92e+09,3.68e+09,3.43e+09,3.45e+09,3.06e+09,2.75e+09,2.64e+09,2.56e+09,2.59e+09,2.44e+09,2.74e+09,0.0381,0.3235,0.0033,0,0
"P12268",4.22e+09,4.26e+09,4.07e+09,3.8e+09,4e+09,3.76e+09,3.29e+09,3.33e+09,3.23e+09,3.35e+09,3.28e+09,3.05e+09,3.14e+09,2.88e+09,2.78e+09,2.56e+09,2.5e+09,2.7e+09,0.0482,0,0,0,0
"P0DMV9",2.28e+09,2.4e+09,2.38e+09,2.28e+09,2.59e+09,2.34e+09,2.36e+09,2.35e+09,2.3e+09,2.75e+09,2.75e+09,2.52e+09,2.54e+09,2.41e+09,2.43e+09,2.53e+09,2.53e+09,2.66e+09,0.3475,0.2954,0.0024,0.0769,0.0074
"P15559",5.07e+09,4.58e+09,4.28e+09,4.1e+09,4.55e+09,3.68e+09,4.64e+09,4.52e+09,4.65e+09,4.43e+09,4.23e+09,3.76e+09,2.98e+09,3.23e+09,3.03e+09,2.7e+09,2.35e+09,2.64e+09,0.0632,0.3147,0.0215,0,0
"P14868",2.5e+09,2.34e+09,2.21e+09,2.55e+09,2.88e+09,2.42e+09,2.35e+09,2.4e+09,2.41e+09,2.48e+09,2.49e+09,2.18e+09,2.61e+09,2.33e+09,2.3e+09,2.62e+09,2.44e+09,2.61e+09,0.0527,0.2602,0.1995,0.1455,0.0168
"P46777",3.66e+09,2.75e+09,2.6e+09,3.17e+09,3.67e+09,2.75e+09,2.72e+09,2.47e+09,2.51e+09,2.88e+09,2.59e+09,2.17e+09,2.83e+09,2.51e+09,2.28e+09,2.5e+09,2.49e+09,2.67e+09,0.2962,0.0597,0.0331,0.0287,0.0229
"P11586",3.3e+09,3.24e+09,3.15e+09,3.01e+09,3.16e+09,2.85e+09,3.27e+09,3e+09,3.04e+09,3.03e+09,3.03e+09,2.72e+09,2.75e+09,2.66e+09,2.48e+09,2.62e+09,2.39e+09,2.62e+09,0.0725,0.1086,0.0051,0,0
"Q13683",8.26e+08,7.88e+08,7.77e+08,1.64e+09,1.64e+09,1.52e+09,2.68e+09,2.68e+09,2.7e+09,3.54e+09,3.49e+09,3.11e+09,3.32e+09,3.23e+09,2.98e+09,2.61e+09,2.3e+09,2.71e+09,0,0,0,0,0
"Q00341",3.75e+09,3.65e+09,3.55e+09,3.49e+09,3.76e+09,3.37e+09,2.61e+09,2.59e+09,2.57e+09,2.64e+09,2.51e+09,2.29e+09,2.57e+09,2.32e+09,2.34e+09,2.64e+09,2.45e+09,2.53e+09,0.2388,0,0,0,0
"Q15942",4.43e+09,4.81e+09,4.65e+09,3.98e+09,4.87e+09,4.12e+09,3.79e+09,3.67e+09,3.52e+09,3.13e+09,3.06e+09,2.82e+09,2.56e+09,2.54e+09,2.36e+09,2.52e+09,2.54e+09,2.54e+09,0.1301,2e-04,0,0,0
"Q13561",3e+09,2.85e+09,2.94e+09,2.57e+09,2.55e+09,2.49e+09,2.39e+09,2.4e+09,2.27e+09,2.4e+09,2.36e+09,2.09e+09,2.45e+09,2.26e+09,2.21e+09,2.54e+09,2.49e+09,2.55e+09,0.0064,1e-04,0,0,4e-04
"P61604",2.57e+09,2.14e+09,2.24e+09,2.22e+09,2.89e+09,2.1e+09,2.71e+09,2.8e+09,2.29e+09,3.28e+09,2.9e+09,2.38e+09,3e+09,2.47e+09,2.37e+09,2.61e+09,2.28e+09,2.67e+09,0.3789,0.0844,0.0111,0.0511,0.0617
"P08195",2.67e+09,2.8e+09,2.82e+09,2.77e+09,2.86e+09,2.75e+09,2.23e+09,2.27e+09,2.25e+09,2.08e+09,1.99e+09,1.81e+09,2.31e+09,2.14e+09,2.16e+09,2.52e+09,2.53e+09,2.49e+09,0.4028,3e-04,0,1e-04,0.0086
"Q16851",3.02e+09,2.86e+09,2.88e+09,3.33e+09,3.28e+09,3.2e+09,3.06e+09,3.02e+09,2.99e+09,2.73e+09,2.69e+09,2.46e+09,2.46e+09,2.37e+09,2.25e+09,2.52e+09,2.58e+09,2.43e+09,0.0112,0.1159,0.0029,0,1e-04
"P18621",3.32e+09,3.24e+09,2.99e+09,3.25e+09,3.32e+09,3.09e+09,2.39e+09,2.48e+09,2.62e+09,2.69e+09,2.43e+09,2.68e+09,2.74e+09,2.89e+09,2.8e+09,2.51e+09,2.45e+09,2.48e+09,0.4032,2e-04,6e-04,0.0071,1e-04
"Q9P2J5",1.75e+09,1.69e+09,1.64e+09,1.97e+09,1.96e+09,1.88e+09,1.81e+09,1.85e+09,1.92e+09,2.01e+09,1.99e+09,2.03e+09,2.33e+09,2.28e+09,2.33e+09,2.51e+09,2.46e+09,2.45e+09,0.0054,0.0081,1e-04,0,0
"P45974",1.89e+09,1.94e+09,1.92e+09,2.16e+09,1.99e+09,2.21e+09,2.22e+09,2.27e+09,2.31e+09,2.05e+09,2.2e+09,2.34e+09,2.24e+09,2.42e+09,2.53e+09,2.45e+09,2.65e+09,2.28e+09,0.0433,9e-04,0.0024,1e-04,0
"P30084",1.36e+09,1.11e+09,1.14e+09,1.25e+09,1.32e+09,1.26e+09,1.72e+09,1.65e+09,1.69e+09,2.07e+09,1.96e+09,1.83e+09,2.29e+09,2.3e+09,2.31e+09,2.44e+09,2.34e+09,2.55e+09,0.2438,2e-04,0,0,0
"P62942",1.65e+09,1.64e+09,1.43e+09,2.08e+09,2.56e+09,1.74e+09,2.34e+09,2.2e+09,2.12e+09,2.32e+09,2.14e+09,1.5e+09,2.65e+09,2.32e+09,1.97e+09,2.58e+09,2.1e+09,2.64e+09,0.0079,6e-04,0.0057,1e-04,0
"P40123",7.92e+08,6.96e+08,7.28e+08,9.01e+08,1.06e+09,8.02e+08,1.29e+09,1.35e+09,1.27e+09,2.14e+09,1.96e+09,1.63e+09,2.54e+09,2.01e+09,2.01e+09,2.43e+09,2.28e+09,2.58e+09,0.0181,0,0,0,0
"P60981",1.58e+09,1.48e+09,1.48e+09,1.2e+09,1.65e+09,1.16e+09,1.55e+09,1.53e+09,1.34e+09,1.75e+09,1.69e+09,1.48e+09,2.17e+09,1.82e+09,2.05e+09,2.38e+09,2.33e+09,2.53e+09,0.0755,0.2471,0.0801,4e-04,0
"P07910",3.69e+09,3.48e+09,3.37e+09,3.05e+09,3.09e+09,2.67e+09,3.94e+09,3.86e+09,3.76e+09,3.69e+09,3.62e+09,2.99e+09,2.83e+09,2.65e+09,2.45e+09,2.5e+09,2.26e+09,2.46e+09,0.0031,0.0191,0.1437,0,0
"P62263",3.67e+09,3.76e+09,3.76e+09,3.15e+09,3.63e+09,2.96e+09,2.84e+09,2.96e+09,2.72e+09,3.13e+09,2.95e+09,2.54e+09,2.95e+09,2.43e+09,2.45e+09,2.38e+09,2.23e+09,2.57e+09,0.0496,5e-04,4e-04,0,0
"P62280",3.64e+09,3.33e+09,3.01e+09,3.04e+09,3.78e+09,2.77e+09,2.8e+09,2.85e+09,2.49e+09,2.99e+09,2.75e+09,2.38e+09,2.79e+09,2.21e+09,2.11e+09,2.3e+09,2.24e+09,2.62e+09,0.3055,0.0062,0.0035,1e-04,1e-04
"Q6NZI2",3.26e+09,3.1e+09,2.92e+09,2.77e+09,3.4e+09,2.85e+09,3.17e+09,3.36e+09,3.03e+09,3.55e+09,3.33e+09,2.89e+09,2.92e+09,2.61e+09,2.66e+09,2.33e+09,2.22e+09,2.53e+09,0.3311,0.2238,0.1119,0.011,1e-04
"P17980",2.17e+09,2.11e+09,2.01e+09,1.99e+09,2.16e+09,2.02e+09,1.98e+09,2.09e+09,1.98e+09,2.21e+09,2.14e+09,2.08e+09,2.35e+09,2.23e+09,2.33e+09,2.28e+09,2.35e+09,2.42e+09,0.3375,0.129,0.1573,0.0086,0.0023
"P62917",2.46e+09,2.54e+09,2.29e+09,2.76e+09,2.68e+09,2.54e+09,2.02e+09,2.2e+09,2.37e+09,2.23e+09,2.3e+09,2.64e+09,2.16e+09,2.41e+09,2.47e+09,2.25e+09,2.5e+09,2.26e+09,0.1398,0.0534,0.1996,0.1448,0.0978
"P06744",1.99e+09,1.96e+09,2.01e+09,2.6e+09,2.45e+09,2.55e+09,2.3e+09,2.27e+09,2.65e+09,2.05e+09,2.34e+09,2.17e+09,1.95e+09,2.04e+09,2.27e+09,2.36e+09,2.25e+09,2.4e+09,6e-04,5e-04,0.0141,0.0696,5e-04
"P20700",2.95e+09,2.69e+09,2.69e+09,2.72e+09,3.06e+09,2.48e+09,4.04e+09,3.97e+09,3.68e+09,3.6e+09,3.42e+09,2.81e+09,2.92e+09,2.48e+09,2.33e+09,2.35e+09,2.19e+09,2.45e+09,0.4175,0,0.0044,0.0495,0.0014
"Q03252",2.35e+09,2.07e+09,2.1e+09,2.18e+09,2.35e+09,2.01e+09,3.21e+09,3.16e+09,2.9e+09,3.09e+09,2.96e+09,2.63e+09,2.74e+09,2.51e+09,2.27e+09,2.29e+09,2.22e+09,2.45e+09,0.4419,0,1e-04,0.0048,0.0405
"P62136",2.84e+09,2.85e+09,2.62e+09,2.53e+09,2.96e+09,2.4e+09,2.76e+09,2.78e+09,2.69e+09,2.78e+09,2.73e+09,2.29e+09,2.61e+09,2.45e+09,2.31e+09,2.31e+09,2.24e+09,2.37e+09,0.1766,0.2946,0.0441,0.0044,2e-04
"P41091",2.37e+09,2.43e+09,2.34e+09,2.6e+09,2.58e+09,2.34e+09,2.2e+09,2.16e+09,2.32e+09,2.33e+09,2.4e+09,2.09e+09,2.26e+09,2.31e+09,2.32e+09,2.3e+09,2.26e+09,2.33e+09,0.1567,0.041,0.0678,0.0899,0.0637
"P54727",1.3e+09,1.39e+09,1.67e+09,1.98e+09,1.92e+09,1.96e+09,1.94e+09,2.01e+09,1.77e+09,2.29e+09,2.08e+09,2.17e+09,2.09e+09,2.33e+09,2.32e+09,2.37e+09,1.96e+09,2.47e+09,0.0095,0.0038,2e-04,1e-04,0
"P15531",2.37e+09,2.37e+09,2.62e+09,2.66e+09,2.41e+09,2.45e+09,2.61e+09,2.36e+09,2.52e+09,2.22e+09,2.25e+09,2.1e+09,2.23e+09,2.39e+09,2.37e+09,2.32e+09,2.25e+09,2.23e+09,0.3752,0.2718,0.0155,0.0891,0.0281
"Q9Y3A5",1.28e+09,1.34e+09,1.25e+09,1.27e+09,1.43e+09,1.29e+09,1.38e+09,1.35e+09,1.51e+09,1.96e+09,1.94e+09,1.9e+09,2.39e+09,2.26e+09,2.35e+09,2.29e+09,2.23e+09,2.28e+09,0.3083,0.025,0,0,0
"O75531",1.88e+09,1.76e+09,1.81e+09,2.11e+09,1.96e+09,2.19e+09,2.1e+09,2.25e+09,2.38e+09,2.13e+09,2.02e+09,2.34e+09,2.05e+09,2.25e+09,2.09e+09,2.24e+09,2.56e+09,1.99e+09,0.0501,0.0021,0.0042,0.0054,6e-04
"Q04446",2.42e+09,2.29e+09,2.23e+09,2.94e+09,2.66e+09,2.83e+09,2.76e+09,2.77e+09,2.91e+09,2.62e+09,2.54e+09,2.44e+09,2.14e+09,2.18e+09,2.16e+09,2.15e+09,2.37e+09,2.27e+09,0.0022,3e-04,0.0162,0.0319,0.1066
"P60866",3.71e+09,3.78e+09,3.51e+09,3.1e+09,4.07e+09,2.83e+09,3.05e+09,3.17e+09,2.76e+09,3.06e+09,3.01e+09,2.18e+09,3.04e+09,2.35e+09,2.34e+09,2.31e+09,2.11e+09,2.36e+09,0.152,0.0101,8e-04,2e-04,0
"O75390",2.22e+09,2.2e+09,2.44e+09,2.24e+09,2.08e+09,2.07e+09,2.46e+09,2.39e+09,2.52e+09,2.48e+09,2.48e+09,2.53e+09,2.41e+09,2.56e+09,2.42e+09,2.19e+09,2.35e+09,2.22e+09,0.1391,0.069,0.0258,0.0381,0.1384
"Q13263",3.33e+09,3.01e+09,3.09e+09,2.95e+09,3.28e+09,2.76e+09,3.47e+09,3.66e+09,3.52e+09,3.49e+09,3.32e+09,2.93e+09,2.88e+09,2.72e+09,2.57e+09,2.31e+09,2.13e+09,2.3e+09,0.2306,0.0149,0.1518,0.0039,0
"Q13203",1.62e+08,1.62e+08,1.25e+08,1.43e+08,1.55e+08,1.51e+08,3.58e+08,4.24e+08,4.24e+08,1.73e+09,1.62e+09,1.61e+09,2.71e+09,2.55e+09,2.68e+09,2.32e+09,2.04e+09,2.36e+09,0.4474,0,0,0,0
"P18669",2.25e+09,2e+09,1.99e+09,2.84e+09,2.99e+09,2.72e+09,2.53e+09,2.81e+09,2.73e+09,2.43e+09,2.47e+09,2.25e+09,2.13e+09,2.04e+09,2.05e+09,2.3e+09,2.22e+09,2.19e+09,4e-04,2e-04,0.0068,0.2346,0.0327
"P09382",3.52e+09,3.88e+09,4.3e+09,3.66e+09,3.47e+09,4.41e+09,3.84e+09,3.5e+09,3.63e+09,2.63e+09,3.21e+09,3.3e+09,2.68e+09,2.32e+09,2.6e+09,2.38e+09,2.12e+09,2.19e+09,0.4089,0.154,0.0016,0,0
"P40925",1.76e+09,1.82e+09,1.84e+09,1.89e+09,1.91e+09,2.06e+09,2.06e+09,2.18e+09,2.13e+09,2.16e+09,2.01e+09,2.17e+09,2.14e+09,2.15e+09,2.32e+09,2.15e+09,2.3e+09,2.2e+09,0.051,3e-04,2e-04,0,0
"Q9UQ80",2.88e+09,2.83e+09,2.56e+09,2.4e+09,2.8e+09,2.29e+09,2.1e+09,2.13e+09,2.11e+09,2.33e+09,2.31e+09,2.05e+09,2.52e+09,2.17e+09,2.22e+09,2.19e+09,2.06e+09,2.36e+09,0.0866,2e-04,7e-04,0.0015,2e-04
"Q06323",1.2e+09,1.17e+09,1.25e+09,1.62e+09,1.61e+09,1.61e+09,1.88e+09,2.05e+09,1.93e+09,2.37e+09,2.21e+09,2.16e+09,2.3e+09,2.27e+09,2.35e+09,2.26e+09,2.19e+09,2.14e+09,1e-04,0,0,0,0
"O14818",2.04e+09,2.15e+09,2.1e+09,1.86e+09,2.21e+09,1.89e+09,2.17e+09,2.13e+09,2.02e+09,2.2e+09,2.21e+09,1.71e+09,2.18e+09,2e+09,1.97e+09,2.21e+09,2.09e+09,2.26e+09,0.232,0.3255,0.1485,0.1721,0.0891
"P26640",2.49e+09,2.22e+09,2.23e+09,2.38e+09,2.34e+09,2.22e+09,2.18e+09,2.13e+09,2.25e+09,2.35e+09,2.25e+09,2.18e+09,2.29e+09,2.21e+09,2.29e+09,2.22e+09,2.17e+09,2.18e+09,0.4549,0.082,0.1579,0.1524,0.0367
"Q92499",1.72e+09,1.65e+09,1.65e+09,1.76e+09,2.03e+09,1.62e+09,2.18e+09,2.1e+09,2.06e+09,2.34e+09,2.24e+09,1.98e+09,2.24e+09,2.02e+09,2.01e+09,2.15e+09,2.07e+09,2.34e+09,0.1482,3e-04,1e-04,2e-04,0
"P50479",1.14e+09,1.05e+09,1.11e+09,1.28e+09,1.42e+09,1.32e+09,2.33e+09,2.39e+09,2.1e+09,2.6e+09,2.47e+09,2.1e+09,2.35e+09,2.27e+09,2.19e+09,2.22e+09,2.16e+09,2.18e+09,0.009,0,0,0,0
"P63010",3.21e+09,2.73e+09,2.75e+09,2.75e+09,2.83e+09,2.7e+09,2.54e+09,2.51e+09,2.69e+09,2.46e+09,2.45e+09,2.43e+09,2.14e+09,2.11e+09,2.23e+09,2.11e+09,2.25e+09,2.18e+09,0.2981,0.0453,0.0082,2e-04,2e-04
"P25398",2.98e+09,2.59e+09,2.6e+09,2.42e+09,2.57e+09,2.45e+09,2.39e+09,2.55e+09,2.36e+09,2.56e+09,2.48e+09,2.44e+09,2.59e+09,2.61e+09,2.43e+09,2.13e+09,2.17e+09,2.23e+09,0.1232,0.0326,0.0461,0.0669,4e-04
"Q07954",3.74e+09,3.7e+09,3.69e+09,4.27e+09,4.51e+09,4.34e+09,4.53e+09,4.36e+09,4.21e+09,3.07e+09,2.96e+09,2.7e+09,2.15e+09,1.95e+09,2.02e+09,2.12e+09,2.13e+09,2.26e+09,0.0026,4e-04,0,0,0
"P62191",2.05e+09,2.11e+09,2.08e+09,2.04e+09,2.28e+09,1.96e+09,1.99e+09,2.02e+09,2.03e+09,2.09e+09,2e+09,1.82e+09,2.31e+09,2.03e+09,1.96e+09,2.18e+09,2.15e+09,2.17e+09,0.4399,0.1899,0.0713,0.2108,0.0713
"P21589",6.67e+09,6.37e+09,6.44e+09,5.47e+09,6.35e+09,5.69e+09,6.4e+09,6.25e+09,6e+09,4.73e+09,4.83e+09,4.37e+09,3.19e+09,2.92e+09,3.05e+09,2.24e+09,2.06e+09,2.2e+09,0.0315,0.1216,0,0,0
"P20020",2.69e+09,2.49e+09,2.35e+09,3.46e+09,3.67e+09,3.38e+09,3.46e+09,3.48e+09,3.52e+09,3.36e+09,3.14e+09,3.06e+09,2.82e+09,2.53e+09,2.58e+09,2.18e+09,2.14e+09,2.16e+09,1e-04,0,1e-04,0.0676,7e-04
"P55060",3.71e+09,3.61e+09,3.64e+09,3.59e+09,3.73e+09,3.57e+09,3.7e+09,3.59e+09,3.56e+09,3.16e+09,3.21e+09,3.11e+09,2.58e+09,2.51e+09,2.63e+09,2.14e+09,2.08e+09,2.25e+09,0.4159,0.2598,2e-04,0,0
"Q15019",2.25e+09,2.48e+09,2.33e+09,2.44e+09,2.66e+09,2.36e+09,3.03e+09,2.93e+09,2.82e+09,2.71e+09,2.72e+09,2.44e+09,2.33e+09,2.22e+09,2.24e+09,2.19e+09,2.1e+09,2.16e+09,0.1857,3e-04,0.0109,0.1099,0.0136
"Q16891",1.92e+09,1.88e+09,1.75e+09,1.7e+09,1.86e+09,1.58e+09,2.43e+09,2.27e+09,2.15e+09,2.46e+09,2.37e+09,2.01e+09,2.34e+09,2.11e+09,2.1e+09,2.11e+09,2.06e+09,2.26e+09,0.1043,3e-04,2e-04,7e-04,0.001
"P49773",1.54e+09,1.37e+09,1.48e+09,1.74e+09,1.49e+09,2.01e+09,1.69e+09,1.58e+09,1.92e+09,1.49e+09,1.62e+09,2.18e+09,1.58e+09,2.17e+09,2.33e+09,2.18e+09,2.38e+09,1.86e+09,0.1181,0.0587,0.0362,0.0028,6e-04
"P13797",2.84e+09,2.69e+09,2.77e+09,2.52e+09,2.55e+09,2.59e+09,3.17e+09,3.32e+09,3.01e+09,2.86e+09,2.95e+09,2.85e+09,2.2e+09,2.28e+09,2.35e+09,2.09e+09,2.15e+09,2.12e+09,0.0736,0.0027,0.0865,1e-04,0
"P47756",2.1e+09,1.91e+09,1.87e+09,2.01e+09,2.18e+09,1.95e+09,2.17e+09,2.31e+09,2.16e+09,2.29e+09,2.17e+09,1.84e+09,2.14e+09,2.16e+09,1.99e+09,2.01e+09,2.11e+09,2.18e+09,0.2583,0.0174,0.0663,0.0559,0.0367
"O43776",1.56e+09,1.66e+09,1.58e+09,1.61e+09,1.56e+09,1.49e+09,1.53e+09,1.6e+09,1.61e+09,1.7e+09,1.74e+09,1.73e+09,1.89e+09,1.82e+09,1.95e+09,2.1e+09,2.08e+09,2.1e+09,0.2512,0.2549,0.0208,2e-04,0
"Q9C0C2",1.64e+09,1.52e+09,1.57e+09,2.01e+09,1.87e+09,1.92e+09,2.32e+09,2.31e+09,2.21e+09,2.21e+09,2.13e+09,2.03e+09,1.98e+09,2.11e+09,1.96e+09,2.03e+09,2.06e+09,2.18e+09,0.001,0,0,0,0
"P26373",2.91e+09,2.96e+09,3e+09,2.65e+09,2.94e+09,2.52e+09,2.27e+09,2.34e+09,2.31e+09,2.42e+09,2.47e+09,2.44e+09,2.43e+09,2.26e+09,2.31e+09,2.07e+09,2.09e+09,2.07e+09,0.0381,0,1e-04,0,0
"P21817",75900000,52400000,49900000,31500000,1.68e+08,71300000,38700000,77400000,32100000,3.29e+08,2.29e+08,2.4e+08,1.07e+09,8.91e+08,1.08e+09,1.82e+09,2.48e+09,1.93e+09,0.3016,0.1769,2e-04,0,0
"P16949",3.84e+09,3.96e+09,4.16e+09,3.74e+09,3.59e+09,4.03e+09,4.4e+09,4.4e+09,3.95e+09,3.16e+09,3.39e+09,3.05e+09,2.51e+09,2.12e+09,1.99e+09,2.33e+09,1.84e+09,2.06e+09,0.2838,0.1471,0.0026,0,0
"P23381",1.1e+09,1.1e+09,1.02e+09,1.01e+09,1.1e+09,1.02e+09,1.07e+09,1.02e+09,1.08e+09,1.17e+09,1.14e+09,1.03e+09,1.71e+09,1.51e+09,1.5e+09,1.98e+09,2.07e+09,2.14e+09,0.3033,0.2586,0.124,0,0
"P62333",1.58e+09,1.52e+09,1.44e+09,1.51e+09,1.72e+09,1.51e+09,1.67e+09,1.74e+09,1.62e+09,1.88e+09,1.87e+09,1.6e+09,2.11e+09,1.83e+09,1.67e+09,2.06e+09,1.98e+09,2.14e+09,0.2439,0.0188,0.0015,2e-04,0
"O94979",2.47e+09,2.38e+09,2.45e+09,2.37e+09,2.57e+09,2.4e+09,2.06e+09,2.09e+09,2.08e+09,2.26e+09,2.22e+09,1.95e+09,2.19e+09,2.05e+09,2.18e+09,2.01e+09,2.07e+09,2.07e+09,0.4335,0.0012,0.0026,0.002,2e-04
"P55084",1.42e+09,1.41e+09,1.25e+09,1.36e+09,1.56e+09,1.36e+09,1.78e+09,1.81e+09,1.69e+09,2.12e+09,1.88e+09,1.92e+09,2.06e+09,1.88e+09,1.86e+09,2e+09,2.01e+09,2.14e+09,0.2248,2e-04,0,0,0
"Q9Y678",3.33e+09,3.13e+09,3.04e+09,3.18e+09,3.24e+09,3e+09,2.41e+09,2.32e+09,2.45e+09,2.2e+09,2.34e+09,2.11e+09,2.11e+09,2.06e+09,2.08e+09,2.07e+09,2e+09,2.06e+09,0.4078,0,0,0,0
"P35998",2.24e+09,2.12e+09,2.15e+09,2e+09,2.1e+09,1.97e+09,1.95e+09,1.88e+09,1.85e+09,2.06e+09,2.04e+09,1.88e+09,2.1e+09,2e+09,2.01e+09,2.02e+09,1.93e+09,2.14e+09,0.078,0.0015,0.0109,0.028,0.0167
"P45880",1.35e+09,1.44e+09,1.32e+09,1.43e+09,1.37e+09,1.41e+09,1.86e+09,1.82e+09,1.83e+09,2.07e+09,1.91e+09,1.72e+09,1.99e+09,1.85e+09,1.87e+09,2.05e+09,2.04e+09,2.01e+09,0.3256,0,0,0,0
"P11413",4.03e+09,4.27e+09,4.24e+09,3.52e+09,3.73e+09,3.46e+09,3.64e+09,3.37e+09,3.49e+09,2.87e+09,2.94e+09,2.75e+09,2.16e+09,2.09e+09,2.14e+09,1.99e+09,2.06e+09,2.02e+09,0.0041,3e-04,0,0,0
"P39656",1.82e+09,1.83e+09,1.77e+09,1.95e+09,1.81e+09,1.89e+09,1.79e+09,1.75e+09,1.85e+09,1.86e+09,1.88e+09,1.87e+09,1.95e+09,1.82e+09,2.13e+09,1.98e+09,2.07e+09,2.03e+09,0.2188,0.3259,0.1061,0.0149,0.0026
"Q14203",2.23e+09,2.28e+09,2.15e+09,2.1e+09,2.26e+09,2.08e+09,2.16e+09,2.12e+09,2.06e+09,2.1e+09,2.06e+09,1.87e+09,2.05e+09,1.91e+09,1.95e+09,2.03e+09,2e+09,2.03e+09,0.2439,0.0794,0.0042,0.0013,0.0034
"P61163",1.87e+09,1.82e+09,1.8e+09,1.96e+09,2.1e+09,1.91e+09,1.68e+09,1.66e+09,1.73e+09,1.85e+09,1.79e+09,1.7e+09,1.9e+09,1.8e+09,1.86e+09,2.01e+09,2.07e+09,1.97e+09,0.0386,0.0153,0.1088,0.1794,0.0023
"Q96HC4",3.48e+09,3.17e+09,3.24e+09,2.86e+09,3.11e+09,2.64e+09,2.61e+09,2.65e+09,2.52e+09,2.6e+09,2.55e+09,2.09e+09,2.16e+09,2.06e+09,1.9e+09,2.06e+09,1.92e+09,2.06e+09,0.0297,4e-04,0,0,0
"P36871",1.38e+09,1.36e+09,1.24e+09,1.67e+09,1.91e+09,1.5e+09,1.94e+09,1.98e+09,1.79e+09,2e+09,1.94e+09,1.57e+09,2.16e+09,1.81e+09,1.81e+09,2e+09,1.9e+09,2.13e+09,0.0029,0,0,0,0
"Q15366",2.69e+09,2.6e+09,2.61e+09,2.45e+09,2.94e+09,2.49e+09,2.77e+09,2.55e+09,2.67e+09,2.48e+09,2.46e+09,2.43e+09,2.53e+09,2.2e+09,2.25e+09,1.93e+09,2.09e+09,2.02e+09,0.43,0.2848,0.0447,0.0044,0
"Q13557",9.61e+08,9.06e+08,9.31e+08,1.11e+09,1.12e+09,1.04e+09,1.32e+09,1.21e+09,1.26e+09,1.43e+09,1.39e+09,1.28e+09,1.74e+09,1.68e+09,1.66e+09,2.03e+09,1.98e+09,2e+09,0.0026,0,0,0,0
"P43686",1.89e+09,1.85e+09,1.81e+09,1.68e+09,1.91e+09,1.68e+09,1.78e+09,1.83e+09,1.7e+09,1.92e+09,1.86e+09,1.73e+09,2.12e+09,1.91e+09,1.94e+09,1.99e+09,1.94e+09,2.08e+09,0.1569,0.1051,0.2105,0.0221,0.0109
"P21291",3.52e+09,3.52e+09,3.45e+09,2.88e+09,3.21e+09,2.79e+09,3.06e+09,3.13e+09,2.87e+09,2.63e+09,2.66e+09,2.31e+09,2.2e+09,1.74e+09,1.86e+09,1.99e+09,1.97e+09,2.04e+09,0.0109,0.0053,0,0,0
"O00571",2.86e+09,2.89e+09,2.58e+09,2.54e+09,2.83e+09,2.42e+09,2.15e+09,2.2e+09,2.21e+09,2.32e+09,2.29e+09,2.01e+09,2.22e+09,1.98e+09,2.09e+09,1.99e+09,1.93e+09,2.09e+09,0.1598,2e-04,2e-04,0,0
"O15144",3.14e+09,2.94e+09,2.64e+09,2.71e+09,3.54e+09,2.53e+09,2.74e+09,2.76e+09,2.7e+09,2.83e+09,2.69e+09,2.09e+09,2.33e+09,1.9e+09,1.92e+09,2.04e+09,1.9e+09,2.06e+09,0.4541,0.1549,0.0174,1e-04,0
"P20929",23900000,19400000,NA,19600000,30200000,NA,1.8e+07,12500000,13100000,6.1e+07,75600000,61100000,1.19e+09,1.07e+09,1.36e+09,1.87e+09,2.36e+09,1.73e+09,0.3124,0.0421,2e-04,0,0
"Q07866",1.33e+09,1.24e+09,1.22e+09,1.1e+09,1.37e+09,1.09e+09,1.03e+09,1.11e+09,9.75e+08,1.39e+09,1.38e+09,1.13e+09,1.93e+09,1.68e+09,1.64e+09,1.94e+09,1.88e+09,2.14e+09,0.2188,0.0046,0.1863,1e-04,0
"P09429",2.45e+09,2.81e+09,3.16e+09,2.87e+09,3.2e+09,2.87e+09,4.16e+09,3.5e+09,3.56e+09,3.28e+09,2.97e+09,2.83e+09,2.4e+09,2.25e+09,2.07e+09,2.11e+09,1.81e+09,2.04e+09,0.3227,0.0105,0.1312,0.0182,0.0016
"P37837",2.17e+09,2.06e+09,2.09e+09,1.87e+09,1.88e+09,1.76e+09,2.02e+09,2.05e+09,2.08e+09,1.96e+09,1.92e+09,1.93e+09,1.87e+09,1.86e+09,1.76e+09,1.94e+09,2.02e+09,1.93e+09,0.0053,0.178,0.0099,4e-04,0.0122
"P07858",1.41e+09,1.41e+09,1.31e+09,1.96e+09,2.07e+09,1.65e+09,3.28e+09,3.13e+09,2.93e+09,3.07e+09,2.99e+09,2.31e+09,2.3e+09,2.16e+09,1.99e+09,2e+09,1.89e+09,2e+09,3e-04,0,0,0,0
"Q15293",1.66e+09,1.71e+09,1.63e+09,2.01e+09,2.39e+09,1.99e+09,1.9e+09,2.04e+09,1.76e+09,1.76e+09,1.67e+09,1.6e+09,1.71e+09,1.47e+09,1.53e+09,1.96e+09,1.91e+09,1.99e+09,0.001,0.0077,0.2366,0.0497,8e-04
"P25786",1.81e+09,1.64e+09,1.46e+09,1.65e+09,2.01e+09,1.6e+09,1.84e+09,1.81e+09,1.68e+09,1.98e+09,1.86e+09,1.39e+09,2.08e+09,1.7e+09,1.6e+09,1.92e+09,1.83e+09,2.08e+09,0.2378,0.097,0.1192,0.0599,0.0049
"P62195",1.8e+09,1.64e+09,1.55e+09,1.72e+09,1.92e+09,1.72e+09,1.64e+09,1.64e+09,1.75e+09,1.83e+09,1.85e+09,1.56e+09,1.89e+09,1.74e+09,1.91e+09,1.97e+09,1.88e+09,1.97e+09,0.1695,0.2983,0.1116,0.0218,0.0031
"P37802",2.9e+09,3.45e+09,3.23e+09,3.5e+09,3.44e+09,3.39e+09,3.44e+09,3.58e+09,3.37e+09,2.69e+09,2.83e+09,2.48e+09,1.84e+09,2.05e+09,1.93e+09,1.86e+09,1.98e+09,1.95e+09,0.1304,0.0534,0.0014,0,0
"Q9NZN4",2.15e+09,2.13e+09,2.03e+09,2.78e+09,2.92e+09,2.75e+09,2.3e+09,2.35e+09,2.41e+09,2.54e+09,2.42e+09,2.51e+09,2.16e+09,2.13e+09,2.37e+09,1.97e+09,1.92e+09,1.9e+09,1e-04,0.008,5e-04,0.0537,0.0097
"P54136",2.11e+09,2.18e+09,2.1e+09,2.13e+09,2.22e+09,2.14e+09,1.94e+09,1.87e+09,1.91e+09,1.97e+09,1.99e+09,1.87e+09,1.92e+09,1.81e+09,1.86e+09,1.96e+09,1.9e+09,1.91e+09,0.3444,0.003,0.0055,4e-04,0.0017
"P06748",2.37e+09,2.81e+09,3.02e+09,2.06e+09,2.17e+09,2.38e+09,2.56e+09,2.73e+09,2.32e+09,2.37e+09,2.32e+09,2.57e+09,2.36e+09,1.96e+09,1.76e+09,1.9e+09,1.68e+09,2.19e+09,0.0626,0.1834,0.0736,0.0028,7e-04
"Q99584",1.47e+09,1.65e+09,1.79e+09,1.62e+09,1.71e+09,1.73e+09,1.73e+09,1.81e+09,1.62e+09,1.76e+09,1.73e+09,1.79e+09,1.57e+09,1.73e+09,1.78e+09,1.87e+09,2.15e+09,1.75e+09,0.3527,0.1802,0.0825,0.153,0.0062
"P13674",1.1e+09,1.08e+09,1.08e+09,1.49e+09,1.55e+09,1.48e+09,1.18e+09,1.22e+09,1.23e+09,1.2e+09,1.13e+09,1.06e+09,1.58e+09,1.51e+09,1.45e+09,1.95e+09,1.86e+09,1.95e+09,0,0.0044,0.0743,0,0
"P51858",1.41e+09,1.35e+09,1.58e+09,1.99e+09,2.13e+09,1.75e+09,2.44e+09,2.58e+09,2.39e+09,2.56e+09,2.36e+09,2.19e+09,2.2e+09,2.03e+09,2.06e+09,2.06e+09,1.77e+09,1.93e+09,0.0062,0,0,1e-04,6e-04
"P61088",1.65e+09,1.77e+09,1.98e+09,2.07e+09,2.16e+09,2.07e+09,2.03e+09,2.09e+09,1.97e+09,2.01e+09,1.92e+09,1.93e+09,1.99e+09,1.93e+09,1.81e+09,1.91e+09,1.92e+09,1.91e+09,0.051,0.0433,0.0713,0.0995,0.0668
"Q15691",1.91e+09,1.9e+09,1.91e+09,1.71e+09,1.89e+09,1.69e+09,1.8e+09,1.76e+09,1.69e+09,1.97e+09,1.88e+09,1.82e+09,2.08e+09,1.99e+09,1.87e+09,1.92e+09,1.92e+09,1.88e+09,0.0626,0.0174,0.2039,0.0795,0.1734
"Q92841",1.7e+09,1.73e+09,1.69e+09,1.68e+09,1.76e+09,1.64e+09,2.57e+09,2.53e+09,2.42e+09,2.65e+09,2.66e+09,2.53e+09,2.21e+09,2.19e+09,2.21e+09,1.83e+09,1.91e+09,1.97e+09,0.3774,0,0,0,8e-04
"Q7Z6Z7",1.32e+09,1.26e+09,1.23e+09,1.37e+09,1.35e+09,1.4e+09,1.47e+09,1.46e+09,1.55e+09,1.62e+09,1.65e+09,1.71e+09,1.84e+09,1.85e+09,1.96e+09,1.92e+09,1.87e+09,1.88e+09,0.0838,0.001,0,0,0
"P17844",3.41e+09,3.21e+09,3.39e+09,2.8e+09,2.82e+09,2.76e+09,2.37e+09,2.33e+09,2.33e+09,2.59e+09,2.56e+09,2.65e+09,2.21e+09,2.36e+09,2.3e+09,1.85e+09,1.91e+09,1.91e+09,0.0014,0,0,0,0
"P13807",4.5e+08,4.31e+08,3.79e+08,6.94e+08,7.37e+08,6.7e+08,5.95e+08,6.66e+08,6.65e+08,1.12e+09,1.07e+09,1.09e+09,1.67e+09,1.58e+09,1.66e+09,1.91e+09,1.84e+09,1.91e+09,1e-04,0,0,0,0
"O75347",1.37e+09,1.45e+09,1.55e+09,1.94e+09,2.15e+09,1.87e+09,1.93e+09,1.87e+09,1.74e+09,1.84e+09,1.87e+09,1.5e+09,2.03e+09,1.81e+09,1.62e+09,1.97e+09,1.78e+09,1.9e+09,0.0067,0.0067,0.017,0.0055,0.0015
"Q9NYU2",1.64e+09,1.66e+09,1.62e+09,1.79e+09,1.81e+09,1.75e+09,1.64e+09,1.61e+09,1.66e+09,1.67e+09,1.62e+09,1.51e+09,1.8e+09,1.84e+09,1.85e+09,1.86e+09,1.89e+09,1.87e+09,0.024,0.3326,0.1165,0.001,2e-04
"O95782",2.11e+09,2.18e+09,2.16e+09,2.31e+09,2.24e+09,2.23e+09,2.21e+09,2.28e+09,2.3e+09,2.25e+09,2.11e+09,2.12e+09,1.93e+09,1.95e+09,1.96e+09,1.92e+09,1.84e+09,1.85e+09,0.1361,0.0605,0.2287,0.0026,2e-04
"Q13151",2.28e+09,2.63e+09,2.61e+09,2.15e+09,2e+09,2.34e+09,2.44e+09,2.53e+09,2.36e+09,2.44e+09,2.43e+09,2.66e+09,2.15e+09,2.21e+09,2.27e+09,1.92e+09,1.94e+09,1.73e+09,0.0391,0.2553,0.2407,0.0154,1e-04
"P62081",1.75e+09,2.07e+09,1.66e+09,2.55e+09,2.31e+09,2.61e+09,1.86e+09,1.75e+09,2.09e+09,1.73e+09,1.84e+09,2.23e+09,1.76e+09,1.94e+09,2.2e+09,1.83e+09,1.87e+09,1.88e+09,0.0226,0.2593,0.166,0.1286,0.1508
"Q15436",1.85e+09,1.61e+09,1.57e+09,1.83e+09,2.02e+09,1.75e+09,1.67e+09,1.81e+09,1.77e+09,1.77e+09,1.71e+09,1.5e+09,1.81e+09,1.55e+09,1.62e+09,1.85e+09,1.84e+09,1.86e+09,0.1034,0.1908,0.2204,0.2158,0.0226
"P39019",2.23e+09,1.94e+09,2.21e+09,2.38e+09,2.35e+09,2.46e+09,1.86e+09,1.72e+09,1.84e+09,1.77e+09,1.89e+09,2.02e+09,1.83e+09,1.88e+09,1.88e+09,1.93e+09,1.73e+09,1.89e+09,0.0381,0.003,0.0112,0.0052,0.0023
"P05023",1.4e+09,1.3e+09,1.3e+09,1.23e+09,1.31e+09,1.23e+09,1.47e+09,1.47e+09,1.4e+09,1.75e+09,1.67e+09,1.6e+09,2.16e+09,1.94e+09,1.9e+09,1.78e+09,1.76e+09,1.96e+09,0.1379,0.0308,1e-04,0,0
"P18124",2.46e+09,2.37e+09,2.22e+09,2.35e+09,2.52e+09,2.39e+09,1.98e+09,1.96e+09,1.94e+09,1.96e+09,2.05e+09,1.98e+09,2.12e+09,1.99e+09,1.87e+09,1.77e+09,1.88e+09,1.85e+09,0.2855,5e-04,7e-04,5e-04,0
"Q13642",8.22e+08,7.04e+08,6.68e+08,5.78e+08,7.87e+08,6.25e+08,8.1e+08,8.47e+08,8.44e+08,1.14e+09,1.13e+09,1.01e+09,1.47e+09,1.42e+09,1.51e+09,1.81e+09,1.82e+09,1.85e+09,0.192,0.0621,2e-04,0,0
"P30050",2.55e+09,2.59e+09,2.65e+09,2.32e+09,2.13e+09,2.19e+09,2e+09,1.91e+09,2.1e+09,1.87e+09,2.09e+09,2e+09,1.84e+09,2.03e+09,1.94e+09,1.84e+09,1.87e+09,1.76e+09,0.004,0,0,0,0
"Q14980",2.45e+09,2.32e+09,2.21e+09,2.38e+09,2.49e+09,2.22e+09,3.7e+09,3.67e+09,3.48e+09,3.5e+09,3.42e+09,3.11e+09,2.5e+09,2.38e+09,2.16e+09,1.84e+09,1.67e+09,1.92e+09,0.37,0,0,0.2104,0
"P27635",2.02e+09,1.8e+09,1.6e+09,2.22e+09,2.69e+09,2.27e+09,1.77e+09,1.89e+09,1.94e+09,2.11e+09,1.81e+09,1.62e+09,2.04e+09,1.72e+09,1.68e+09,1.83e+09,1.74e+09,1.82e+09,0.0061,0.2305,0.2012,0.2292,0.1754
"Q9HBL0",8.28e+08,7.89e+08,8.16e+08,9.97e+08,1.06e+09,1.01e+09,8.38e+08,9.17e+08,8.38e+08,1.25e+09,1.16e+09,1.09e+09,1.61e+09,1.48e+09,1.47e+09,1.79e+09,1.74e+09,1.86e+09,7e-04,0.0644,0,0,0
"Q12905",2.16e+09,2.11e+09,2.1e+09,2.26e+09,2.07e+09,2.17e+09,2.29e+09,2.2e+09,2.59e+09,2.3e+09,2.24e+09,2.37e+09,2e+09,2.1e+09,2.23e+09,1.76e+09,1.87e+09,1.75e+09,0.3444,0.0147,0.0228,0.2175,4e-04
"O95817",1.31e+09,1.24e+09,1.22e+09,1.27e+09,1.45e+09,1.26e+09,1.15e+09,1.11e+09,1.1e+09,1.45e+09,1.4e+09,1.14e+09,1.76e+09,1.62e+09,1.43e+09,1.76e+09,1.73e+09,1.87e+09,0.2259,0.0203,0.0913,1e-04,0
"O14980",1.89e+09,1.99e+09,1.88e+09,1.95e+09,2.05e+09,1.97e+09,2.19e+09,2.26e+09,2.3e+09,2.06e+09,2.13e+09,2.08e+09,1.87e+09,1.82e+09,1.98e+09,1.79e+09,1.79e+09,1.77e+09,0.2159,4e-04,0.0084,0.1677,0.0101
"Q9P0L0",1.49e+09,1.44e+09,1.5e+09,1.43e+09,1.55e+09,1.34e+09,1.42e+09,1.5e+09,1.31e+09,1.57e+09,1.45e+09,1.21e+09,1.78e+09,1.63e+09,1.47e+09,1.85e+09,1.64e+09,1.85e+09,0.3621,0.1821,0.121,0.0418,0.002
"P23526",1.71e+09,1.57e+09,1.55e+09,1.65e+09,1.92e+09,1.59e+09,1.76e+09,1.62e+09,1.72e+09,1.81e+09,1.83e+09,1.56e+09,1.88e+09,1.84e+09,1.72e+09,1.77e+09,1.78e+09,1.79e+09,0.1736,0.1181,0.0505,0.0089,0.0112
"P47897",2.47e+09,2.4e+09,2.24e+09,2.22e+09,2.53e+09,2.08e+09,1.92e+09,1.9e+09,1.86e+09,2.05e+09,1.92e+09,1.79e+09,2.02e+09,1.72e+09,1.7e+09,1.87e+09,1.66e+09,1.8e+09,0.2368,2e-04,2e-04,0,0
"P14314",1.95e+09,1.79e+09,1.98e+09,2.26e+09,2.34e+09,2.48e+09,2.16e+09,2.3e+09,2.04e+09,2.06e+09,2.04e+09,1.98e+09,1.9e+09,1.83e+09,1.81e+09,1.8e+09,1.58e+09,1.93e+09,0.0033,0.0113,0.0632,0.137,0.0287
"P49748",1.67e+09,1.55e+09,1.6e+09,1.66e+09,1.75e+09,1.66e+09,1.89e+09,1.89e+09,1.97e+09,1.98e+09,1.96e+09,1.89e+09,1.79e+09,1.68e+09,1.75e+09,1.78e+09,1.75e+09,1.76e+09,0.1547,3e-04,1e-04,0.0129,0.0043
"P62753",2.19e+09,1.98e+09,2.01e+09,2.42e+09,2.67e+09,2.4e+09,1.99e+09,1.94e+09,1.95e+09,1.99e+09,1.93e+09,1.92e+09,1.8e+09,1.87e+09,1.89e+09,1.72e+09,1.8e+09,1.75e+09,0.0055,0.1275,0.075,0.0136,0.0011
"O43175",1.43e+09,1.43e+09,1.46e+09,1.25e+09,1.33e+09,1.29e+09,1.53e+09,1.53e+09,1.41e+09,1.4e+09,1.4e+09,1.29e+09,1.53e+09,1.52e+09,1.4e+09,1.74e+09,1.79e+09,1.73e+09,0.0246,0.1566,0.0547,0.1227,1e-04
"P52943",4.84e+08,5.88e+08,4.07e+08,6.74e+08,7.65e+08,6.73e+08,9.88e+08,9.04e+08,1.03e+09,1.43e+09,1.24e+09,1.01e+09,1.73e+09,1.88e+09,1.55e+09,1.72e+09,1.67e+09,1.88e+09,0.0127,0,0,0,0
"P52907",2.11e+09,2.09e+09,1.92e+09,2.06e+09,2.23e+09,1.78e+09,2.23e+09,2.19e+09,2.21e+09,2.23e+09,2.21e+09,1.91e+09,2e+09,1.88e+09,1.79e+09,1.73e+09,1.75e+09,1.76e+09,0.3901,0.031,0.1074,0.0201,4e-04
"P05455",2.51e+09,2.8e+09,3.06e+09,2.93e+09,3.01e+09,2.83e+09,2.81e+09,2.85e+09,2.65e+09,2.59e+09,2.48e+09,2.53e+09,2e+09,2.02e+09,2.02e+09,1.81e+09,1.67e+09,1.73e+09,0.3002,0.3234,0.0649,2e-04,0
"O75643",2.12e+09,2.14e+09,2.02e+09,2.13e+09,2.12e+09,2.02e+09,2.3e+09,2.17e+09,2.36e+09,2.2e+09,2.24e+09,2.23e+09,1.99e+09,1.93e+09,2.05e+09,1.72e+09,1.74e+09,1.74e+09,0.454,0.0209,0.0369,0.0538,1e-04
"O95373",1.88e+09,1.86e+09,1.89e+09,2e+09,1.89e+09,2.06e+09,1.4e+09,1.43e+09,1.54e+09,1.4e+09,1.56e+09,1.62e+09,1.56e+09,1.63e+09,1.76e+09,1.76e+09,1.81e+09,1.63e+09,0.169,0,1e-04,0.0025,0.0132
"P27695",1.43e+09,1.38e+09,1.45e+09,1.56e+09,1.46e+09,1.49e+09,2.02e+09,1.94e+09,2.03e+09,2.07e+09,2.04e+09,2.03e+09,1.73e+09,1.94e+09,1.81e+09,1.7e+09,1.71e+09,1.73e+09,0.1313,0,0,0,1e-04
"P61313",2.12e+09,1.88e+09,2.04e+09,2.47e+09,1.97e+09,2.18e+09,1.73e+09,1.84e+09,1.86e+09,1.72e+09,1.69e+09,2.01e+09,1.55e+09,2e+09,1.96e+09,1.75e+09,1.75e+09,1.63e+09,0.1745,0.0682,0.0431,0.0537,0.0072
"P30044",1.31e+09,1.19e+09,1.29e+09,1.23e+09,1.35e+09,1.24e+09,1.55e+09,1.51e+09,1.55e+09,1.48e+09,1.44e+09,1.33e+09,1.57e+09,1.39e+09,1.44e+09,1.79e+09,1.62e+09,1.71e+09,0.4323,6e-04,0.0083,0.0017,0
"Q07955",1.52e+09,1.75e+09,1.84e+09,1.86e+09,1.74e+09,1.8e+09,2.31e+09,2.46e+09,2.13e+09,2.17e+09,2.1e+09,2.02e+09,1.93e+09,1.74e+09,1.73e+09,1.79e+09,1.63e+09,1.69e+09,0.2962,0.0021,0.009,0.1287,0.1733
"O15357",3.42e+08,2.8e+08,2.63e+08,4.12e+08,3.76e+08,3.34e+08,6.93e+08,6.47e+08,6.98e+08,9.57e+08,9.73e+08,9.01e+08,1.41e+09,1.4e+09,1.4e+09,1.71e+09,1.72e+09,1.67e+09,0.0132,0,0,0,0
"Q14240",1.1e+09,1.08e+09,9.57e+08,1.31e+09,1.41e+09,1.21e+09,1.23e+09,1.18e+09,1.25e+09,1.83e+09,1.74e+09,1.51e+09,1.89e+09,1.68e+09,1.66e+09,1.68e+09,1.6e+09,1.81e+09,0.0043,0.0068,0,0,0
"P61353",2.24e+09,2.01e+09,1.97e+09,2.25e+09,2.45e+09,2.05e+09,1.6e+09,1.55e+09,1.62e+09,1.85e+09,1.81e+09,1.78e+09,1.95e+09,1.7e+09,1.91e+09,1.73e+09,1.7e+09,1.66e+09,0.1192,1e-04,0.0065,0.011,3e-04
"P11532",18800000,NA,13800000,12100000,20300000,52200000,11300000,17100000,12700000,1.92e+08,1.53e+08,1.84e+08,1.06e+09,1.86e+09,1.13e+09,1.81e+09,1.51e+09,1.75e+09,0.2037,0.1772,2e-04,0,0
"P08708",2.53e+09,2.36e+09,2.49e+09,2.37e+09,2.6e+09,2.39e+09,2.04e+09,1.94e+09,1.95e+09,1.93e+09,1.91e+09,1.88e+09,1.86e+09,1.9e+09,2e+09,1.72e+09,1.65e+09,1.68e+09,0.4385,1e-04,0,0,0
"P11216",2.2e+09,2.25e+09,2.13e+09,2.38e+09,2.37e+09,2.33e+09,1.97e+09,1.93e+09,2.15e+09,1.75e+09,1.86e+09,1.9e+09,1.58e+09,1.6e+09,1.69e+09,1.67e+09,1.73e+09,1.66e+09,0.0983,0.0304,4e-04,0,0
"P10768",1.54e+09,1.62e+09,1.56e+09,1.7e+09,1.9e+09,1.67e+09,2.07e+09,2e+09,1.75e+09,1.87e+09,1.95e+09,1.92e+09,1.7e+09,1.71e+09,1.66e+09,1.64e+09,1.69e+09,1.69e+09,0.0223,1e-04,1e-04,0.0201,0.0227
"P28482",1.49e+09,1.65e+09,1.46e+09,1.54e+09,1.77e+09,1.55e+09,1.61e+09,1.68e+09,1.63e+09,1.83e+09,1.71e+09,1.58e+09,1.79e+09,1.59e+09,1.63e+09,1.68e+09,1.53e+09,1.8e+09,0.2499,0.111,0.0285,0.0459,0.0325
"P04080",1.29e+09,1.3e+09,1.4e+09,1.28e+09,1.38e+09,1.27e+09,1.46e+09,1.48e+09,1.36e+09,1.74e+09,1.52e+09,1.44e+09,1.63e+09,1.64e+09,1.48e+09,1.61e+09,1.71e+09,1.67e+09,0.4116,0.0937,0.0058,0.0034,5e-04
"O43242",1.53e+09,1.44e+09,1.39e+09,1.53e+09,1.48e+09,1.49e+09,1.52e+09,1.47e+09,1.55e+09,1.47e+09,1.48e+09,1.55e+09,1.59e+09,1.61e+09,1.59e+09,1.7e+09,1.68e+09,1.61e+09,0.2501,0.1205,0.1088,0.0078,8e-04
"P07384",1.18e+09,1.2e+09,1.13e+09,1.29e+09,1.38e+09,1.32e+09,1.34e+09,1.33e+09,1.43e+09,1.46e+09,1.46e+09,1.52e+09,1.47e+09,1.52e+09,1.62e+09,1.67e+09,1.7e+09,1.6e+09,0.0173,0.0013,0,0,0
"Q16531",1.46e+09,1.46e+09,1.41e+09,1.48e+09,1.67e+09,1.5e+09,1.74e+09,1.83e+09,1.89e+09,1.91e+09,1.99e+09,1.9e+09,1.75e+09,1.6e+09,1.74e+09,1.66e+09,1.61e+09,1.69e+09,0.0945,1e-04,0,4e-04,7e-04
"P62249",2.27e+09,2.22e+09,2.05e+09,2.01e+09,2.5e+09,2.12e+09,1.92e+09,1.82e+09,1.85e+09,1.91e+09,2.01e+09,1.64e+09,1.82e+09,1.6e+09,1.67e+09,1.66e+09,1.54e+09,1.76e+09,0.4258,0.0074,0.0038,2e-04,1e-04
"P51114",1.28e+09,1.17e+09,1.12e+09,1.23e+09,1.34e+09,1.15e+09,1.19e+09,1.18e+09,1.19e+09,1.5e+09,1.56e+09,1.39e+09,1.81e+09,1.74e+09,1.71e+09,1.7e+09,1.56e+09,1.69e+09,0.2578,0.3291,2e-04,0,0
"P62910",1.73e+09,1.52e+09,1.31e+09,1.97e+09,2.41e+09,1.73e+09,1.66e+09,1.52e+09,1.53e+09,1.94e+09,1.75e+09,1.43e+09,1.97e+09,1.57e+09,1.57e+09,1.7e+09,1.48e+09,1.76e+09,0.0062,0.231,0.0463,0.041,0.0531
"P35237",1.24e+09,1.2e+09,1.15e+09,1.31e+09,1.5e+09,1.28e+09,1.3e+09,1.35e+09,1.39e+09,1.35e+09,1.33e+09,1.39e+09,1.3e+09,1.35e+09,1.41e+09,1.61e+09,1.66e+09,1.65e+09,0.0302,0.0139,0.0068,0.0059,0
"Q99873",1.14e+09,1.1e+09,1.03e+09,1.37e+09,1.29e+09,1.29e+09,1.43e+09,1.44e+09,1.58e+09,1.66e+09,1.75e+09,1.79e+09,1.8e+09,1.67e+09,1.97e+09,1.61e+09,1.66e+09,1.65e+09,0.0127,1e-04,0,0,0
"Q16082",1.93e+08,2.14e+08,2.17e+08,2.63e+08,2.87e+08,2.61e+08,4.02e+08,3.83e+08,3.59e+08,8.71e+08,8.27e+08,6.49e+08,1.45e+09,1.36e+09,1.24e+09,1.68e+09,1.51e+09,1.7e+09,0.0146,0,0,0,0
"P17858",1.04e+09,1e+09,9.29e+08,1.3e+09,1.4e+09,1.28e+09,1.35e+09,1.23e+09,1.34e+09,1.22e+09,1.25e+09,1.18e+09,1.42e+09,1.42e+09,1.42e+09,1.55e+09,1.65e+09,1.68e+09,5e-04,1e-04,4e-04,0,0
"P60953",2.03e+09,2.1e+09,2.1e+09,2.01e+09,1.87e+09,2.01e+09,2.42e+09,2.02e+09,2.16e+09,1.93e+09,2.09e+09,2.16e+09,1.76e+09,1.63e+09,1.48e+09,1.6e+09,1.52e+09,1.75e+09,0.2205,0.1196,0.2274,2e-04,1e-04
"Q92945",2.29e+09,2.31e+09,2.17e+09,2.08e+09,2.26e+09,2.15e+09,2.52e+09,2.59e+09,2.4e+09,2.22e+09,2.25e+09,2.03e+09,1.93e+09,1.9e+09,1.8e+09,1.64e+09,1.54e+09,1.66e+09,0.1885,0.0052,0.0757,1e-04,0
"Q00688",8.64e+08,9.53e+08,1.1e+09,1.24e+09,1.22e+09,1.17e+09,1.09e+09,1.3e+09,1.14e+09,1.31e+09,1.29e+09,1.15e+09,1.44e+09,1.38e+09,1.34e+09,1.64e+09,1.6e+09,1.59e+09,0.0445,0.0275,0.0064,7e-04,0
"P61586",1.31e+09,1.5e+09,1.45e+09,1.1e+09,1.19e+09,1.14e+09,1.56e+09,1.53e+09,1.36e+09,1.63e+09,1.7e+09,1.51e+09,1.79e+09,1.68e+09,1.46e+09,1.58e+09,1.66e+09,1.59e+09,0.0126,0.1824,0.02,0.0109,0.0115
"Q92974",1.38e+09,1.46e+09,1.35e+09,1.56e+09,1.6e+09,1.51e+09,1.36e+09,1.38e+09,1.45e+09,1.76e+09,1.72e+09,1.77e+09,1.79e+09,1.75e+09,1.87e+09,1.58e+09,1.64e+09,1.6e+09,0.0246,0.3285,0,0,6e-04
"Q9Y3I0",1.43e+09,1.46e+09,1.45e+09,1.43e+09,1.45e+09,1.41e+09,1.69e+09,1.69e+09,1.63e+09,1.63e+09,1.59e+09,1.74e+09,1.61e+09,1.47e+09,1.51e+09,1.6e+09,1.53e+09,1.69e+09,0.3705,0.0012,0.0012,0.0403,0.0026
"Q15029",1.79e+09,1.85e+09,1.8e+09,1.76e+09,1.83e+09,1.8e+09,1.9e+09,1.88e+09,1.94e+09,1.95e+09,1.91e+09,1.93e+09,1.7e+09,1.78e+09,1.83e+09,1.56e+09,1.65e+09,1.56e+09,0.3783,0.055,0.0182,0.1092,2e-04
"P60660",2.98e+09,3.06e+09,3.28e+09,2.74e+09,3.05e+09,2.89e+09,3.37e+09,3.42e+09,2.98e+09,2.49e+09,2.43e+09,2.47e+09,1.73e+09,1.84e+09,1.59e+09,1.7e+09,1.53e+09,1.54e+09,0.1968,0.1728,9e-04,0,0
"P56192",1.49e+09,1.54e+09,1.49e+09,1.5e+09,1.5e+09,1.44e+09,1.4e+09,1.37e+09,1.34e+09,1.52e+09,1.51e+09,1.4e+09,1.6e+09,1.54e+09,1.5e+09,1.57e+09,1.56e+09,1.64e+09,0.3375,0.0066,0.1433,0.1197,0.0261
"P11766",1.33e+09,1.24e+09,1.35e+09,1.53e+09,1.58e+09,1.57e+09,1.68e+09,1.7e+09,1.75e+09,1.78e+09,1.76e+09,1.85e+09,1.6e+09,1.62e+09,1.69e+09,1.56e+09,1.69e+09,1.5e+09,0.0044,0,0,1e-04,2e-04
"P60900",1.65e+09,1.44e+09,1.37e+09,1.24e+09,1.49e+09,1.38e+09,1.46e+09,1.48e+09,1.43e+09,1.52e+09,1.53e+09,1.45e+09,1.6e+09,1.5e+09,1.54e+09,1.54e+09,1.57e+09,1.63e+09,0.1963,0.2904,0.2281,0.1407,0.0736
"Q99623",1.19e+09,1.35e+09,1.2e+09,1.41e+09,1.3e+09,1.38e+09,1.55e+09,1.5e+09,1.62e+09,1.57e+09,1.69e+09,1.52e+09,1.53e+09,1.65e+09,1.6e+09,1.55e+09,1.61e+09,1.57e+09,0.1034,5e-04,2e-04,1e-04,1e-04
"O60763",9.5e+08,8.89e+08,8.6e+08,1.12e+09,1.32e+09,1.09e+09,1.15e+09,1.12e+09,1.12e+09,1.27e+09,1.25e+09,1.01e+09,1.56e+09,1.47e+09,1.34e+09,1.59e+09,1.49e+09,1.66e+09,0.0013,5e-04,1e-04,0,0
"P21964",8.1e+08,1.01e+09,9.5e+08,1.16e+09,1.12e+09,1.38e+09,1.42e+09,1.4e+09,1.56e+09,1.52e+09,1.52e+09,1.94e+09,1.42e+09,1.54e+09,1.76e+09,1.54e+09,1.66e+09,1.54e+09,0.0088,1e-04,0,0,0
"Q16181",1.4e+09,1.31e+09,1.28e+09,1.36e+09,1.46e+09,1.41e+09,1.83e+09,1.8e+09,1.78e+09,1.79e+09,1.68e+09,1.79e+09,1.56e+09,1.53e+09,1.64e+09,1.43e+09,1.66e+09,1.63e+09,0.2102,1e-04,1e-04,0.002,0.0014
"Q9Y570",1.82e+09,1.75e+09,1.78e+09,1.53e+09,1.54e+09,1.46e+09,1.45e+09,1.37e+09,1.31e+09,1.42e+09,1.4e+09,1.24e+09,1.45e+09,1.51e+09,1.45e+09,1.5e+09,1.55e+09,1.63e+09,0.0044,0,0,1e-04,0.0011
"Q99613",2.05e+09,1.88e+09,1.84e+09,1.88e+09,1.88e+09,1.75e+09,1.5e+09,1.48e+09,1.57e+09,1.64e+09,1.62e+09,1.58e+09,1.69e+09,1.58e+09,1.68e+09,1.62e+09,1.5e+09,1.55e+09,0.1978,1e-04,3e-04,7e-04,0
"Q99536",1.09e+09,1.07e+09,1.08e+09,1.26e+09,1.21e+09,1.27e+09,1.24e+09,1.39e+09,1.41e+09,1.49e+09,1.45e+09,1.61e+09,1.37e+09,1.4e+09,1.45e+09,1.54e+09,1.59e+09,1.52e+09,0.0063,1e-04,0,0,0
"P11802",3.89e+09,3.89e+09,3.7e+09,3.14e+09,3.54e+09,3.28e+09,2.64e+09,2.72e+09,2.52e+09,2.2e+09,2.2e+09,2.07e+09,1.89e+09,1.82e+09,1.73e+09,1.54e+09,1.45e+09,1.66e+09,0.0087,0,0,0,0
"Q9Y3F4",2e+09,1.93e+09,2.01e+09,1.93e+09,1.93e+09,1.87e+09,1.65e+09,1.67e+09,1.62e+09,1.7e+09,1.68e+09,1.65e+09,1.66e+09,1.73e+09,1.7e+09,1.55e+09,1.5e+09,1.59e+09,0.2082,1e-04,1e-04,1e-04,0
"Q96AC1",1.65e+09,1.41e+09,1.28e+09,1.57e+09,2.05e+09,1.49e+09,1.61e+09,1.52e+09,1.45e+09,1.69e+09,1.59e+09,1.27e+09,1.61e+09,1.15e+09,1.15e+09,1.51e+09,1.4e+09,1.71e+09,0.0904,0.1958,0.157,0.0548,0.084
"P61160",1.92e+09,1.76e+09,1.72e+09,2.03e+09,2.1e+09,1.98e+09,1.72e+09,1.83e+09,1.88e+09,1.7e+09,1.63e+09,1.64e+09,1.53e+09,1.45e+09,1.61e+09,1.5e+09,1.61e+09,1.51e+09,0.0436,0.3074,0.0429,0.0024,0.002
"P34897",1.41e+09,1.43e+09,1.42e+09,1.42e+09,1.34e+09,1.46e+09,1.47e+09,1.46e+09,1.55e+09,1.42e+09,1.43e+09,1.47e+09,1.4e+09,1.52e+09,1.53e+09,1.53e+09,1.65e+09,1.44e+09,0.4135,0.0844,0.1814,0.0635,0.0096
"P27348",1.86e+09,1.82e+09,1.92e+09,1.72e+09,2.1e+09,1.91e+09,2.16e+09,2.17e+09,2.15e+09,1.89e+09,1.87e+09,1.77e+09,1.59e+09,1.73e+09,1.48e+09,1.55e+09,1.55e+09,1.52e+09,0.373,0.0076,0.2031,0.0027,5e-04
"Q9ULV4",2.69e+09,2.48e+09,2.39e+09,2.4e+09,2.99e+09,2.54e+09,2.61e+09,2.72e+09,2.43e+09,2.34e+09,2.47e+09,2.25e+09,1.98e+09,1.75e+09,1.72e+09,1.52e+09,1.49e+09,1.6e+09,0.2689,0.237,0.074,0,0
"P05198",1.74e+09,1.86e+09,1.75e+09,1.64e+09,1.7e+09,1.6e+09,1.56e+09,1.48e+09,1.54e+09,1.5e+09,1.55e+09,1.41e+09,1.48e+09,1.4e+09,1.59e+09,1.56e+09,1.45e+09,1.59e+09,0.1099,0.0031,7e-04,6e-04,0.0011
"Q96TA1",3.14e+09,3.42e+09,3.26e+09,3.19e+09,3.33e+09,3.31e+09,2.81e+09,2.77e+09,2.73e+09,2.13e+09,2.29e+09,2.19e+09,1.67e+09,1.63e+09,1.58e+09,1.51e+09,1.49e+09,1.58e+09,0.454,4e-04,0,0,0
"O00567",1.52e+09,1.53e+09,1.51e+09,1.61e+09,1.57e+09,1.55e+09,1.81e+09,1.73e+09,1.79e+09,1.81e+09,1.77e+09,1.75e+09,1.65e+09,1.63e+09,1.65e+09,1.51e+09,1.55e+09,1.5e+09,0.1726,1e-04,1e-04,0.0046,0.1706
"Q9UBQ7",9.34e+08,8.14e+08,8.97e+08,9.31e+08,1.05e+09,9.66e+08,1.08e+09,1.2e+09,1.11e+09,1.39e+09,1.27e+09,1.22e+09,1.51e+09,1.38e+09,1.43e+09,1.53e+09,1.48e+09,1.54e+09,0.0929,7e-04,0,0,0
"Q96QK1",1.7e+09,1.71e+09,1.68e+09,1.77e+09,1.68e+09,1.68e+09,1.66e+09,1.56e+09,1.66e+09,1.62e+09,1.6e+09,1.59e+09,1.44e+09,1.42e+09,1.46e+09,1.5e+09,1.46e+09,1.55e+09,0.4145,0.0923,0.0347,1e-04,6e-04
"P51659",8.63e+08,9.24e+08,9.08e+08,1.01e+09,9.98e+08,9.63e+08,1.01e+09,9.95e+08,1.05e+09,1.15e+09,1.14e+09,1.11e+09,1.32e+09,1.3e+09,1.4e+09,1.52e+09,1.54e+09,1.45e+09,0.0374,0.0034,0,0,0
"P22102",1.87e+09,1.95e+09,1.81e+09,2.02e+09,1.98e+09,1.95e+09,1.59e+09,1.53e+09,1.65e+09,1.55e+09,1.54e+09,1.64e+09,1.55e+09,1.54e+09,1.63e+09,1.5e+09,1.48e+09,1.52e+09,0.1835,0.0015,8e-04,6e-04,1e-04
"Q9NRX4",7.43e+08,7.73e+08,7.83e+08,1.08e+09,1.03e+09,1.04e+09,1.19e+09,1.12e+09,1.1e+09,1.16e+09,1.16e+09,1.09e+09,1.26e+09,1.36e+09,1.26e+09,1.52e+09,1.49e+09,1.48e+09,1e-04,0,0,0,0
"Q9H4M9",2.24e+09,2.24e+09,2.1e+09,2.01e+09,2.11e+09,1.89e+09,1.93e+09,2e+09,1.84e+09,2.11e+09,2.08e+09,1.89e+09,1.89e+09,1.69e+09,1.71e+09,1.45e+09,1.43e+09,1.6e+09,0.0567,0.0036,0.0232,1e-04,0
"P55884",1.89e+09,1.85e+09,1.82e+09,1.75e+09,2.05e+09,1.81e+09,1.58e+09,1.64e+09,1.45e+09,1.72e+09,1.59e+09,1.52e+09,1.69e+09,1.55e+09,1.58e+09,1.48e+09,1.42e+09,1.57e+09,0.4271,9e-04,0.0021,0.0018,1e-04
"P52306",1.95e+09,1.71e+09,1.74e+09,1.9e+09,2.1e+09,1.84e+09,1.8e+09,1.75e+09,1.72e+09,1.56e+09,1.53e+09,1.39e+09,1.52e+09,1.42e+09,1.39e+09,1.46e+09,1.46e+09,1.54e+09,0.1359,0.2338,0.0012,3e-04,5e-04
"P61981",5.56e+08,8.4e+08,8.27e+08,8.86e+08,6.22e+08,9.89e+08,8.77e+08,8.97e+08,7.31e+08,5.91e+08,7.13e+08,1.69e+09,1.14e+09,1.08e+09,8.1e+08,1.83e+09,1.16e+09,1.46e+09,0.3428,0.2139,0.1082,0.0498,0.0018
"P28838",1.19e+09,1.23e+09,1.17e+09,1.29e+09,1.28e+09,1.34e+09,1.29e+09,1.25e+09,1.29e+09,1.28e+09,1.36e+09,1.34e+09,1.48e+09,1.52e+09,1.51e+09,1.48e+09,1.47e+09,1.5e+09,0.0407,0.0434,0.0038,0,0
"P00390",1.14e+09,9.88e+08,9.05e+08,1.19e+09,1.34e+09,1.08e+09,1.73e+09,1.84e+09,1.72e+09,1.93e+09,1.9e+09,1.61e+09,1.68e+09,1.54e+09,1.62e+09,1.49e+09,1.4e+09,1.54e+09,0.0407,0,0,0,0
"Q06210",1.82e+09,1.79e+09,1.76e+09,1.75e+09,1.73e+09,1.72e+09,1.05e+09,1.05e+09,1.19e+09,1.06e+09,1.07e+09,1.12e+09,1.29e+09,1.3e+09,1.43e+09,1.48e+09,1.52e+09,1.42e+09,0.2731,0,0,0,1e-04
"Q14247",2.44e+09,2.25e+09,2.25e+09,1.96e+09,2.25e+09,1.93e+09,2.29e+09,2.33e+09,2.16e+09,2.02e+09,1.97e+09,1.85e+09,1.73e+09,1.58e+09,1.48e+09,1.42e+09,1.49e+09,1.5e+09,0.0327,0.2327,0.0013,0,0
"P28066",1.48e+09,1.42e+09,1.38e+09,1.25e+09,1.21e+09,1.33e+09,1.29e+09,1.35e+09,1.32e+09,1.41e+09,1.39e+09,1.25e+09,1.42e+09,1.39e+09,1.43e+09,1.49e+09,1.45e+09,1.44e+09,0.0175,0.0368,0.0559,0.2116,0.0928
"O43390",1.5e+09,1.56e+09,1.47e+09,1.46e+09,1.6e+09,1.42e+09,1.76e+09,1.74e+09,1.75e+09,1.79e+09,1.73e+09,1.77e+09,1.66e+09,1.5e+09,1.56e+09,1.46e+09,1.47e+09,1.43e+09,0.3901,0.0011,5e-04,0.0736,0.0672
"O75367",9.57e+08,9.27e+08,9.77e+08,1.21e+09,1.12e+09,1.17e+09,1.74e+09,1.73e+09,1.74e+09,1.68e+09,1.79e+09,1.62e+09,1.63e+09,1.49e+09,1.49e+09,1.48e+09,1.41e+09,1.47e+09,9e-04,0,0,0,0
"P26639",1.57e+09,1.55e+09,1.53e+09,1.47e+09,1.48e+09,1.5e+09,1.34e+09,1.33e+09,1.34e+09,1.3e+09,1.35e+09,1.34e+09,1.3e+09,1.32e+09,1.35e+09,1.43e+09,1.44e+09,1.49e+09,0.1571,3e-04,2e-04,1e-04,0.0117
"Q9Y262",1.84e+09,1.78e+09,1.77e+09,1.71e+09,1.72e+09,1.66e+09,1.35e+09,1.37e+09,1.44e+09,1.52e+09,1.54e+09,1.47e+09,1.53e+09,1.52e+09,1.52e+09,1.48e+09,1.41e+09,1.45e+09,0.0998,0,1e-04,1e-04,0
"P51149",1.5e+09,1.62e+09,1.67e+09,1.5e+09,1.5e+09,1.56e+09,1.12e+09,1.11e+09,1.18e+09,1.45e+09,1.39e+09,1.34e+09,1.45e+09,1.55e+09,1.6e+09,1.4e+09,1.49e+09,1.45e+09,0.1817,0,0.002,0.0872,0.0058
"P61970",6.6e+08,7.72e+08,7.58e+08,1.06e+09,1.03e+09,1.12e+09,1.21e+09,1.04e+09,1.15e+09,1.28e+09,1.19e+09,1.4e+09,1.22e+09,1.19e+09,1.28e+09,1.4e+09,1.5e+09,1.44e+09,6e-04,0,0,0,0
"Q6WCQ1",1.55e+09,1.51e+09,1.54e+09,1.79e+09,1.75e+09,1.65e+09,1.83e+09,1.8e+09,1.75e+09,1.72e+09,1.65e+09,1.43e+09,1.6e+09,1.49e+09,1.44e+09,1.4e+09,1.41e+09,1.53e+09,0.0264,0.002,0.106,0.1694,0.0331
"Q9NTK5",1.09e+09,1.15e+09,1.12e+09,1.17e+09,1.3e+09,1.16e+09,1.21e+09,1.23e+09,1.16e+09,1.31e+09,1.33e+09,1.24e+09,1.52e+09,1.31e+09,1.41e+09,1.42e+09,1.37e+09,1.55e+09,0.1133,0.064,0.0031,1e-04,0
"Q8N3D4",63300000,38800000,68300000,1.27e+08,1.26e+08,1.47e+08,1.34e+08,97200000,1.68e+08,4.74e+08,4.86e+08,5.11e+08,1.03e+09,1.04e+09,1.12e+09,1.41e+09,1.54e+09,1.39e+09,7e-04,1e-04,0,0,0
"P14866",1.7e+09,1.72e+09,1.48e+09,1.56e+09,1.87e+09,1.44e+09,2.01e+09,2.12e+09,1.98e+09,1.97e+09,2.01e+09,1.64e+09,1.76e+09,1.55e+09,1.5e+09,1.41e+09,1.34e+09,1.59e+09,0.4209,0.0017,0.0148,0.1906,0.0114
"P35052",6.47e+08,6.63e+08,7.15e+08,7.24e+08,6.23e+08,6.56e+08,1.3e+09,1.25e+09,1.21e+09,1.43e+09,1.46e+09,1.32e+09,1.54e+09,1.47e+09,1.46e+09,1.51e+09,1.26e+09,1.55e+09,0.4163,0,0,0,0
"Q15008",1.4e+09,1.22e+09,1.16e+09,1.34e+09,1.4e+09,1.31e+09,1.3e+09,1.29e+09,1.34e+09,1.42e+09,1.41e+09,1.25e+09,1.45e+09,1.47e+09,1.47e+09,1.42e+09,1.34e+09,1.55e+09,0.2159,0.1933,0.0715,0.01,0.0114
"P48444",1.95e+09,1.96e+09,1.9e+09,2.08e+09,1.95e+09,1.91e+09,1.66e+09,1.52e+09,1.63e+09,1.47e+09,1.59e+09,1.44e+09,1.44e+09,1.43e+09,1.42e+09,1.43e+09,1.43e+09,1.45e+09,0.3155,1e-04,0,0,0
"Q71UI9",1.4e+09,9.86e+08,1.29e+09,1.86e+09,1.63e+09,1.75e+09,2.37e+09,2.09e+09,2.16e+09,1.94e+09,1.88e+09,1.82e+09,1.74e+09,1.71e+09,1.61e+09,1.5e+09,1.48e+09,1.31e+09,0.0086,1e-04,4e-04,0.0019,0.0232
"Q13418",1.63e+09,1.65e+09,1.56e+09,1.47e+09,1.63e+09,1.41e+09,1.47e+09,1.48e+09,1.48e+09,1.36e+09,1.3e+09,1.26e+09,1.34e+09,1.22e+09,1.25e+09,1.42e+09,1.4e+09,1.45e+09,0.0857,0.0177,0,0,0.001
"O75533",1.7e+09,1.79e+09,1.71e+09,1.77e+09,1.77e+09,1.73e+09,1.95e+09,1.84e+09,1.94e+09,1.78e+09,1.83e+09,1.88e+09,1.63e+09,1.7e+09,1.76e+09,1.46e+09,1.39e+09,1.42e+09,0.375,0.0103,0.0456,0.1452,0
"P46776",1.98e+09,1.82e+09,1.93e+09,2.1e+09,1.93e+09,2.06e+09,1.54e+09,1.67e+09,1.68e+09,1.71e+09,1.61e+09,1.78e+09,1.67e+09,1.63e+09,1.72e+09,1.47e+09,1.41e+09,1.39e+09,0.1259,7e-04,0.0027,0.0011,0
"P62820",1.83e+09,1.7e+09,1.69e+09,1.7e+09,1.64e+09,1.94e+09,9.18e+08,8.42e+08,1.12e+09,1.04e+09,1.13e+09,1.52e+09,1.16e+09,1.34e+09,1.66e+09,1.43e+09,1.61e+09,1.22e+09,0.4441,1e-04,0.0017,0.0112,0.0125
"Q13510",1.52e+08,2.43e+08,1.95e+08,2.67e+08,2.42e+08,2.7e+08,5.33e+08,5.5e+08,5.4e+08,8.65e+08,8.6e+08,8.98e+08,1.12e+09,1.23e+09,1.24e+09,1.41e+09,1.45e+09,1.37e+09,0.0604,0,0,0,0
"Q8TDZ2",9.46e+08,9.49e+08,9.69e+08,1.01e+09,9.53e+08,9.13e+08,1.13e+09,1.14e+09,1.18e+09,1.51e+09,1.46e+09,1.47e+09,1.52e+09,1.58e+09,1.62e+09,1.45e+09,1.36e+09,1.42e+09,0.4314,1e-04,0,0,0
"P63000",2.03e+09,1.78e+09,1.83e+09,1.89e+09,2.2e+09,1.78e+09,1.93e+09,1.79e+09,1.75e+09,1.65e+09,1.6e+09,1.48e+09,1.62e+09,1.38e+09,1.3e+09,1.41e+09,1.36e+09,1.45e+09,0.3113,0.2119,0.0026,1e-04,0
"Q9Y696",1.44e+09,1.62e+09,1.71e+09,1.49e+09,1.37e+09,1.47e+09,1.42e+09,1.5e+09,1.43e+09,1.23e+09,1.36e+09,1.25e+09,1.32e+09,1.21e+09,1.21e+09,1.35e+09,1.47e+09,1.4e+09,0.1416,0.0783,0.002,8e-04,0.0159
"Q15181",1.59e+09,1.43e+09,1.36e+09,1.58e+09,1.61e+09,1.7e+09,1.46e+09,1.53e+09,1.51e+09,1.46e+09,1.41e+09,1.56e+09,1.39e+09,1.49e+09,1.55e+09,1.38e+09,1.49e+09,1.36e+09,0.1282,0.2527,0.2155,0.2076,0.1154
"P15311",2.66e+09,2.4e+09,2.54e+09,2.72e+09,2.73e+09,2.6e+09,2.39e+09,2.32e+09,2.44e+09,1.92e+09,2.01e+09,1.95e+09,1.42e+09,1.58e+09,1.51e+09,1.37e+09,1.46e+09,1.39e+09,0.2094,0.1036,1e-04,0,0
"P20618",1.2e+09,1.25e+09,1.12e+09,1.02e+09,1.2e+09,9.65e+08,1.28e+09,1.29e+09,1.23e+09,1.31e+09,1.32e+09,9.87e+08,1.42e+09,1.26e+09,1.2e+09,1.38e+09,1.31e+09,1.49e+09,0.0761,0.1057,0.2235,0.0454,0.0029
"P05556",2.36e+09,2.31e+09,2.45e+09,2.35e+09,2.46e+09,2.43e+09,2.6e+09,2.51e+09,2.27e+09,1.94e+09,1.82e+09,1.68e+09,1.47e+09,1.42e+09,1.47e+09,1.45e+09,1.24e+09,1.49e+09,0.3866,0.1887,1e-04,0,0
"P35606",1.81e+09,1.72e+09,1.66e+09,2e+09,1.95e+09,2.02e+09,1.37e+09,1.41e+09,1.48e+09,1.45e+09,1.51e+09,1.66e+09,1.38e+09,1.42e+09,1.46e+09,1.37e+09,1.47e+09,1.34e+09,0.029,0.0013,0.0128,7e-04,2e-04
"P50502",1.16e+09,1.06e+09,1.18e+09,1.2e+09,1.12e+09,1.23e+09,1.2e+09,1.17e+09,1.21e+09,1.29e+09,1.36e+09,1.32e+09,1.33e+09,1.54e+09,1.41e+09,1.38e+09,1.39e+09,1.39e+09,0.2585,0.1235,0.003,2e-04,3e-04
"P00367",1.01e+09,1.05e+09,1.01e+09,1.06e+09,1.11e+09,1.02e+09,1.35e+09,1.34e+09,1.39e+09,1.53e+09,1.45e+09,1.41e+09,1.38e+09,1.27e+09,1.24e+09,1.36e+09,1.39e+09,1.4e+09,0.232,0,0,0,0
"Q9UL46",8.15e+08,8.84e+08,8.45e+08,1.13e+09,1.13e+09,1.08e+09,1.38e+09,1.21e+09,1.3e+09,1.25e+09,1.29e+09,1.24e+09,1.26e+09,1.32e+09,1.25e+09,1.38e+09,1.39e+09,1.38e+09,3e-04,0,0,0,0
"P24752",1.12e+09,1.08e+09,1.13e+09,1.09e+09,1.15e+09,1.05e+09,1.58e+09,1.58e+09,1.48e+09,1.68e+09,1.57e+09,1.53e+09,1.39e+09,1.66e+09,1.47e+09,1.39e+09,1.4e+09,1.35e+09,0.4119,0,0,0,1e-04
"P09486",2.38e+08,2.8e+08,3.61e+08,5.45e+08,5.06e+08,5.65e+08,7.25e+08,8.78e+08,8.53e+08,8.56e+08,8.04e+08,7.93e+08,1.1e+09,1.04e+09,1.17e+09,1.48e+09,1.21e+09,1.44e+09,0.0012,0,0,0,0
"P36542",1.03e+09,8.44e+08,8.54e+08,8.41e+08,9.61e+08,7.18e+08,1.11e+09,1.13e+09,1.11e+09,1.34e+09,1.33e+09,1.07e+09,1.32e+09,9.75e+08,9.55e+08,1.37e+09,1.34e+09,1.41e+09,0.2148,0.0094,6e-04,0.0135,0
"P42224",1.32e+09,1.25e+09,1.24e+09,1.37e+09,1.41e+09,1.26e+09,1.21e+09,1.2e+09,1.15e+09,1.25e+09,1.21e+09,1.1e+09,1.25e+09,1.16e+09,1.16e+09,1.37e+09,1.39e+09,1.36e+09,0.1196,0.0325,0.0246,0.0252,0.0078
"P04216",1.32e+09,1.12e+09,1.08e+09,1.54e+09,1.65e+09,1.4e+09,2.43e+09,1.66e+09,1.95e+09,1.79e+09,1.82e+09,1.86e+09,1.53e+09,1.68e+09,1.55e+09,1.68e+09,1.19e+09,1.22e+09,0.0087,0,0,4e-04,0.0148
"P54577",1.3e+09,1.27e+09,1.3e+09,1.13e+09,1.25e+09,1.21e+09,1.14e+09,1.2e+09,1.12e+09,1.21e+09,1.2e+09,1.17e+09,1.39e+09,1.3e+09,1.35e+09,1.39e+09,1.36e+09,1.34e+09,0.0649,0.0046,0.0162,0.0646,0.029
"P22307",8e+08,7.63e+08,8.3e+08,9.62e+08,9.99e+08,9.59e+08,1.04e+09,1.01e+09,1.1e+09,1.15e+09,1.11e+09,1.12e+09,1.21e+09,1.28e+09,1.32e+09,1.41e+09,1.41e+09,1.26e+09,0.0029,0,0,0,0
"Q9UHB6",1.27e+09,1.17e+09,1.26e+09,1.55e+09,1.64e+09,1.49e+09,1.97e+09,1.9e+09,1.73e+09,1.81e+09,1.71e+09,1.51e+09,1.54e+09,1.34e+09,1.29e+09,1.28e+09,1.34e+09,1.45e+09,0.0049,0,1e-04,0.0179,0.0245
"O00303",1.63e+09,1.59e+09,1.68e+09,1.37e+09,1.5e+09,1.38e+09,1.28e+09,1.34e+09,1.25e+09,1.34e+09,1.3e+09,1.14e+09,1.42e+09,1.32e+09,1.27e+09,1.35e+09,1.27e+09,1.42e+09,0.0237,3e-04,1e-04,5e-04,4e-04
"P05386",NA,1.41e+09,1.81e+09,1.47e+09,1.17e+09,2.16e+09,1.31e+09,1.49e+09,9.43e+08,1.65e+09,1.29e+09,2.07e+09,1.57e+09,1.45e+09,1.68e+09,1.3e+09,1.25e+09,1.48e+09,0.4533,0.0541,0.2302,0.2158,0.0688
"P67936",2.75e+09,3.09e+09,3.44e+09,3.46e+09,4.01e+09,3.3e+09,3.7e+09,3.52e+09,2.63e+09,2.02e+09,1.91e+09,1.4e+09,1.5e+09,9.27e+08,8.89e+08,1.36e+09,1.08e+09,1.58e+09,0.2473,0.269,0.0016,0,0
"O75947",8.25e+08,8.58e+08,8.43e+08,1.01e+09,1.02e+09,9.72e+08,1.18e+09,1.05e+09,1.19e+09,1.19e+09,1.26e+09,1.2e+09,1.26e+09,1.33e+09,1.29e+09,1.33e+09,1.42e+09,1.26e+09,0.0025,0,0,0,0
"P50914",1.72e+09,1.78e+09,1.75e+09,1.61e+09,1.45e+09,1.46e+09,1.42e+09,1.29e+09,1.35e+09,1.27e+09,1.37e+09,1.28e+09,1.34e+09,1.23e+09,1.07e+09,1.38e+09,1.32e+09,1.29e+09,0.0183,2e-04,0,0,0
"Q27J81",8.77e+08,8.62e+08,8.53e+08,9.15e+08,9.15e+08,8.93e+08,7.43e+08,7.05e+08,7.14e+08,9.1e+08,9.2e+08,9.12e+08,1.18e+09,1.11e+09,1.19e+09,1.36e+09,1.32e+09,1.3e+09,0.1101,0,0.0234,0,0
"Q9Y2Z0",1.27e+09,1.23e+09,1.28e+09,1.18e+09,1.24e+09,1.09e+09,1.17e+09,1.19e+09,1.1e+09,1.45e+09,1.41e+09,1.18e+09,1.55e+09,1.41e+09,1.3e+09,1.3e+09,1.26e+09,1.42e+09,0.1581,0.0583,0.0775,0.0133,0.071
"P22695",1.08e+09,1.08e+09,1.08e+09,8.99e+08,1.04e+09,8.98e+08,1.14e+09,1.23e+09,1.22e+09,1.38e+09,1.4e+09,1.18e+09,1.4e+09,1.28e+09,1.21e+09,1.34e+09,1.3e+09,1.34e+09,0.0237,0.0231,4e-04,7e-04,2e-04
"P84098",1.58e+09,1.49e+09,1.49e+09,1.82e+09,1.84e+09,1.46e+09,1.59e+09,1.42e+09,1.44e+09,1.46e+09,1.39e+09,1.09e+09,1.62e+09,1.27e+09,1.17e+09,1.17e+09,1.31e+09,1.49e+09,0.1456,0.2677,0.0203,0.0318,0.0143
"P58546",9.9e+08,1.14e+09,1.36e+09,1.72e+09,1.63e+09,1.48e+09,1.63e+09,1.63e+09,1.56e+09,1.61e+09,1.59e+09,1.48e+09,1.43e+09,1.3e+09,1.27e+09,1.41e+09,1.25e+09,1.29e+09,0.0292,0.0094,0.0092,0.0688,0.0548
"P83731",1.32e+09,1.37e+09,1.52e+09,1.38e+09,1.29e+09,1.46e+09,1.07e+09,1.01e+09,1.02e+09,1.12e+09,1.07e+09,1.23e+09,1.54e+09,1.3e+09,1.37e+09,1.36e+09,1.27e+09,1.31e+09,0.3901,1e-04,0.0015,0.238,0.0544
"Q96AQ6",2.76e+08,2.84e+08,3.08e+08,4.7e+08,3.81e+08,4.33e+08,1.43e+09,1.47e+09,1.54e+09,1.13e+09,1.22e+09,1.21e+09,9.69e+08,1.04e+09,1.01e+09,1.24e+09,1.36e+09,1.33e+09,1e-04,0,0,0,0
"P20073",1.14e+09,1.18e+09,1.15e+09,1.1e+09,1.18e+09,1.02e+09,1.38e+09,1.45e+09,1.37e+09,1.41e+09,1.4e+09,1.19e+09,1.39e+09,1.25e+09,1.22e+09,1.32e+09,1.22e+09,1.38e+09,0.2148,0.0012,0.0049,0.0133,0.0047
"Q15370",1.62e+09,1.63e+09,1.62e+09,1.49e+09,1.63e+09,1.46e+09,1.37e+09,1.47e+09,1.33e+09,1.47e+09,1.36e+09,1.17e+09,1.39e+09,1.27e+09,1.24e+09,1.29e+09,1.29e+09,1.32e+09,0.1695,0.0032,4e-04,1e-04,1e-04
"P29966",3.7e+09,3.17e+09,3.47e+09,2.73e+09,3.08e+09,2.57e+09,2.61e+09,2.66e+09,2.39e+09,2.3e+09,2.26e+09,1.87e+09,1.68e+09,1.41e+09,1.3e+09,1.31e+09,1.06e+09,1.53e+09,0.0326,0.0016,0,0,0
"P47755",9.23e+08,9.69e+08,9.01e+08,1.01e+09,8.85e+08,1.13e+09,9.9e+08,9.26e+08,1.09e+09,9.84e+08,1.06e+09,1.24e+09,1.11e+09,1.23e+09,1.32e+09,1.3e+09,1.38e+09,1.2e+09,0.2209,0.1384,0.0156,0.001,1e-04
"P09874",2.08e+09,1.9e+09,1.89e+09,1.93e+09,2.19e+09,1.76e+09,2.49e+09,2.47e+09,2.4e+09,2.39e+09,2.31e+09,2.07e+09,1.73e+09,1.55e+09,1.49e+09,1.32e+09,1.2e+09,1.33e+09,0.4538,3e-04,0.0044,3e-04,0
"P61254",1.78e+09,1.82e+09,1.71e+09,1.64e+09,1.92e+09,1.54e+09,1.4e+09,1.5e+09,1.24e+09,1.35e+09,1.57e+09,1.37e+09,1.54e+09,1.28e+09,1.24e+09,1.3e+09,1.24e+09,1.31e+09,0.2527,3e-04,5e-04,1e-04,0
"P62913",1.38e+09,1.58e+09,1.49e+09,1.32e+09,1.42e+09,1.34e+09,1.24e+09,1.2e+09,1.15e+09,1.31e+09,1.34e+09,1.25e+09,1.27e+09,1.45e+09,1.36e+09,1.18e+09,1.39e+09,1.27e+09,0.0675,1e-04,0.0024,0.0141,6e-04
"P48047",8.13e+08,8.72e+08,8.27e+08,8.35e+08,1.1e+09,8.78e+08,1.22e+09,1.22e+09,1.12e+09,1.46e+09,1.39e+09,1.08e+09,1.34e+09,1.23e+09,1.29e+09,1.27e+09,1.19e+09,1.38e+09,0.1256,1e-04,0,0,0
"P22234",1.47e+09,1.43e+09,1.49e+09,1.6e+09,1.59e+09,1.61e+09,1.47e+09,1.4e+09,1.55e+09,1.44e+09,1.42e+09,1.46e+09,1.28e+09,1.39e+09,1.41e+09,1.31e+09,1.28e+09,1.23e+09,0.0322,0.2904,0.1743,0.0128,3e-04
"Q92900",1.3e+09,1.26e+09,1.2e+09,1.27e+09,1.37e+09,1.24e+09,1.18e+09,1.14e+09,1.21e+09,1.4e+09,1.38e+09,1.17e+09,1.48e+09,1.33e+09,1.33e+09,1.25e+09,1.22e+09,1.34e+09,0.2878,0.0729,0.09,0.0133,0.1453
"P04040",8.91e+08,9.63e+08,9.22e+08,9.72e+08,1.07e+09,9.89e+08,1.22e+09,1.23e+09,1.16e+09,1.12e+09,1.16e+09,1.13e+09,1.13e+09,1.02e+09,1.07e+09,1.3e+09,1.18e+09,1.31e+09,0.0832,1e-04,2e-04,0.0018,0
"Q93008",1.08e+09,1.05e+09,9.9e+08,1.29e+09,1.29e+09,1.16e+09,1.27e+09,1.25e+09,1.32e+09,1.31e+09,1.28e+09,1.21e+09,1.32e+09,1.3e+09,1.25e+09,1.24e+09,1.24e+09,1.3e+09,0.0017,1e-04,1e-04,0,0
"Q9Y281",7.69e+08,7.89e+08,8.29e+08,8.16e+08,7.91e+08,7.86e+08,1.11e+09,1.01e+09,1.1e+09,1.21e+09,1.38e+09,1.3e+09,1.27e+09,1.4e+09,1.56e+09,1.34e+09,1.24e+09,1.2e+09,0.447,0,0,0,0
"P00505",1.11e+09,1.08e+09,1.11e+09,1.03e+09,1.14e+09,1.04e+09,1.21e+09,1.22e+09,1.26e+09,1.3e+09,1.29e+09,1.31e+09,1.21e+09,1.21e+09,1.29e+09,1.29e+09,1.28e+09,1.22e+09,0.266,0.0044,2e-04,0.0017,5e-04
"Q9NY33",1e+09,1.02e+09,9.61e+08,1.02e+09,1.08e+09,9.85e+08,1.11e+09,1.11e+09,1.13e+09,1.19e+09,1.14e+09,1.18e+09,1.18e+09,1.19e+09,1.25e+09,1.28e+09,1.23e+09,1.25e+09,0.2248,0.0037,3e-04,1e-04,0
"Q9UNZ2",8.23e+08,7.75e+08,8.47e+08,7.82e+08,8.71e+08,8.23e+08,9.78e+08,1.02e+09,8.79e+08,1.02e+09,9.89e+08,8.52e+08,1.21e+09,1.12e+09,1.04e+09,1.3e+09,1.2e+09,1.27e+09,0.4165,0.0116,0.0096,1e-04,0
"Q6P2Q9",1.47e+09,1.42e+09,1.42e+09,1.45e+09,1.41e+09,1.42e+09,1.58e+09,1.54e+09,1.6e+09,1.61e+09,1.58e+09,1.56e+09,1.36e+09,1.33e+09,1.4e+09,1.24e+09,1.26e+09,1.25e+09,0.3997,0.0055,0.0023,0.0283,1e-04
"P52597",1.59e+09,1.43e+09,1.48e+09,1.45e+09,1.94e+09,1.54e+09,1.69e+09,1.86e+09,1.66e+09,1.78e+09,1.62e+09,1.29e+09,1.64e+09,1.4e+09,1.29e+09,1.21e+09,1.17e+09,1.36e+09,0.2206,0.0439,0.1821,0.1518,0.0071
"P09211",1.75e+09,1.86e+09,1.94e+09,1.54e+09,1.7e+09,1.56e+09,1.78e+09,1.91e+09,1.44e+09,1.71e+09,1.61e+09,1.35e+09,1.51e+09,1.13e+09,1.16e+09,1.32e+09,1.12e+09,1.29e+09,0.1311,0.1524,0.025,4e-04,2e-04
"P62879",1.16e+09,1.05e+09,1.04e+09,1.21e+09,1.14e+09,1.18e+09,1.52e+09,1.63e+09,1.72e+09,1.65e+09,1.68e+09,1.65e+09,1.3e+09,1.3e+09,1.43e+09,1.27e+09,1.27e+09,1.18e+09,0.1425,0,0,6e-04,0.0054
"Q96C19",6.4e+08,6.95e+08,6.7e+08,5.37e+08,6.06e+08,5.52e+08,9.52e+08,9.83e+08,8.76e+08,1.49e+09,1.44e+09,1.3e+09,1.75e+09,1.68e+09,1.68e+09,1.26e+09,1.2e+09,1.25e+09,0.0087,0,0,0,0
"P31949",1.49e+09,1.26e+09,1.41e+09,1.23e+09,1.19e+09,1.34e+09,1.54e+09,9.96e+08,1.43e+09,9.23e+08,1.1e+09,1.13e+09,1.03e+09,9.79e+08,9.57e+08,1.32e+09,1.29e+09,1.09e+09,0.1789,0.1752,0.0015,3e-04,0.0306
"P59998",1.85e+09,1.85e+09,1.77e+09,1.76e+09,1.69e+09,1.9e+09,1.63e+09,1.56e+09,1.69e+09,1.43e+09,1.5e+09,1.52e+09,1.27e+09,1.21e+09,1.37e+09,1.22e+09,1.26e+09,1.21e+09,0.3398,0.0134,3e-04,0,0
"P63220",1.63e+09,1.32e+09,1.21e+09,1.55e+09,2.13e+09,1.44e+09,1.4e+09,1.25e+09,1.22e+09,1.42e+09,1.28e+09,9.97e+08,1.43e+09,1.37e+09,1.18e+09,1.24e+09,1.24e+09,1.19e+09,0.0539,0.1815,0.06,0.1653,0.0405
"P62851",1.54e+09,1.38e+09,1.47e+09,1.46e+09,1.41e+09,1.26e+09,1.34e+09,1.29e+09,1.31e+09,1.42e+09,1.29e+09,1.28e+09,1.49e+09,1.27e+09,1.24e+09,1.16e+09,1.19e+09,1.32e+09,0.1675,0.0208,0.0211,0.0188,5e-04
"P61026",1.39e+09,1.26e+09,1.24e+09,1.18e+09,1.17e+09,1.25e+09,1.02e+09,1.03e+09,1.02e+09,9.36e+08,1.03e+09,1.02e+09,1.08e+09,1.09e+09,1.12e+09,1.21e+09,1.23e+09,1.23e+09,0.1484,5e-04,1e-04,0.0022,0.0557
"P10599",1.9e+09,2.1e+09,2.68e+09,2.36e+09,2.23e+09,2.27e+09,2.24e+09,1.98e+09,2.14e+09,1.84e+09,1.8e+09,1.95e+09,1.25e+09,1.44e+09,1.49e+09,1.36e+09,1.04e+09,1.26e+09,0.3866,0.259,0.0414,3e-04,0
"P61221",1.66e+09,1.67e+09,1.62e+09,1.58e+09,1.72e+09,1.47e+09,1.45e+09,1.42e+09,1.4e+09,1.43e+09,1.39e+09,1.39e+09,1.32e+09,1.26e+09,1.32e+09,1.2e+09,1.19e+09,1.27e+09,0.2247,9e-04,3e-04,0,0
"Q5T4S7",1.17e+09,1.21e+09,1.16e+09,1.12e+09,1.14e+09,1.12e+09,1.08e+09,1.09e+09,1.05e+09,1.12e+09,1.09e+09,1.07e+09,1.2e+09,1.15e+09,1.18e+09,1.21e+09,1.2e+09,1.24e+09,0.1489,0.0063,0.0127,0.2229,0.0539
"Q04760",1.17e+09,1.18e+09,1.14e+09,1.26e+09,1.44e+09,1.15e+09,1.32e+09,1.41e+09,1.27e+09,1.32e+09,1.27e+09,1e+09,1.17e+09,1.11e+09,1.08e+09,1.25e+09,1.18e+09,1.22e+09,0.0991,0.0112,0.1784,0.1197,0.0777
"P29692",1.43e+09,1.5e+09,1.4e+09,1.05e+09,1.44e+09,1.16e+09,1.19e+09,1.23e+09,1.03e+09,1.24e+09,1.23e+09,1.24e+09,1.26e+09,1.17e+09,1.24e+09,1.14e+09,1.26e+09,1.25e+09,0.0111,6e-04,0.0042,0.0025,0.0012
"P04899",1.53e+09,1.35e+09,1.4e+09,1.08e+09,1.2e+09,1.12e+09,1.6e+09,1.67e+09,1.79e+09,1.72e+09,1.8e+09,1.77e+09,1.25e+09,1.35e+09,1.34e+09,1.22e+09,1.2e+09,1.22e+09,0.0079,0.0083,0.0016,0.0566,0.004
"Q9BWM7",1.09e+09,1.07e+09,1.05e+09,1.21e+09,1.17e+09,1.12e+09,1.43e+09,1.35e+09,1.43e+09,1.47e+09,1.42e+09,1.39e+09,1.31e+09,1.31e+09,1.26e+09,1.21e+09,1.19e+09,1.23e+09,0.0253,0,0,0,3e-04
"Q71UM5",1.74e+09,1.71e+09,1.69e+09,1.51e+09,1.86e+09,1.45e+09,1.54e+09,1.63e+09,1.46e+09,1.5e+09,1.38e+09,1.29e+09,1.35e+09,1.25e+09,1.21e+09,1.18e+09,1.12e+09,1.34e+09,0.1809,0.0355,9e-04,1e-04,0
"Q15393",1.59e+09,1.66e+09,1.6e+09,1.61e+09,1.58e+09,1.69e+09,1.54e+09,1.51e+09,1.69e+09,1.53e+09,1.53e+09,1.61e+09,1.3e+09,1.39e+09,1.52e+09,1.17e+09,1.22e+09,1.23e+09,0.4179,0.2336,0.116,0.0016,0
"O00469",3.12e+09,2.96e+09,2.9e+09,3.04e+09,3.22e+09,3.08e+09,2.06e+09,2e+09,2e+09,1.47e+09,1.33e+09,1.26e+09,1.1e+09,1.02e+09,1.1e+09,1.17e+09,1.22e+09,1.22e+09,0.2217,0,0,0,0
"P28074",9.4e+08,1.1e+09,9.25e+08,8.73e+08,1.05e+09,8.88e+08,9.34e+08,9.56e+08,8.98e+08,1.11e+09,1.09e+09,8.64e+08,1.19e+09,1.02e+09,1.02e+09,1.25e+09,1.1e+09,1.27e+09,0.2845,0.1704,0.1845,0.0729,0.0041
"P54687",3.91e+08,5.02e+08,4.26e+08,5.45e+08,5.64e+08,5.58e+08,5.69e+08,5.32e+08,6.05e+08,7e+08,7.25e+08,7.77e+08,9.02e+08,1.07e+09,1.13e+09,1.15e+09,1.33e+09,1.13e+09,0.015,0.0024,0,0,0
"Q13162",1.33e+09,1.3e+09,1.42e+09,1.43e+09,1.48e+09,1.38e+09,1.29e+09,1.39e+09,1.35e+09,1.31e+09,1.32e+09,1.21e+09,1.25e+09,1.23e+09,1.23e+09,1.22e+09,1.16e+09,1.22e+09,0.17,0.3257,0.0816,0.0205,0.0047
"Q01105",1.16e+09,1.57e+09,2e+09,1.57e+09,1.66e+09,1.61e+09,1.89e+09,1.94e+09,1.64e+09,1.75e+09,1.84e+09,1.64e+09,1.43e+09,1.27e+09,1.39e+09,1.29e+09,1.03e+09,1.27e+09,0.3983,0.1438,0.1359,0.1247,0.0316
"Q15843",6.69e+08,8.97e+08,1.06e+09,1.29e+09,9.43e+08,1.56e+09,9.21e+08,8.31e+08,1.3e+09,8.08e+08,8.04e+08,1.64e+09,8.89e+08,1.29e+09,1.63e+09,1.13e+09,1.42e+09,1.04e+09,0.035,0.1256,0.0718,0.0069,0.0078
"Q1KMD3",1.15e+09,1.15e+09,1.01e+09,1.13e+09,1.21e+09,1.13e+09,1.58e+09,1.56e+09,1.45e+09,1.49e+09,1.45e+09,1.32e+09,1.29e+09,1.2e+09,1.27e+09,1.2e+09,1.09e+09,1.29e+09,0.2552,1e-04,3e-04,0.0106,0.0336
"Q07960",1.66e+09,1.74e+09,1.61e+09,1.67e+09,1.75e+09,1.7e+09,1.14e+09,1.13e+09,1.14e+09,1.04e+09,1.06e+09,1.15e+09,1.06e+09,1.09e+09,1.11e+09,1.2e+09,1.23e+09,1.15e+09,0.3214,0,0,0,0
"Q9UNM6",1.23e+09,1.24e+09,1.21e+09,1.03e+09,1.13e+09,1.06e+09,1.08e+09,1.16e+09,1.11e+09,1.19e+09,1.15e+09,1.08e+09,1.21e+09,1.17e+09,1.17e+09,1.15e+09,1.2e+09,1.22e+09,0.0049,0.0069,0.0129,0.072,0.0717
"P43034",1.14e+09,1.03e+09,9.81e+08,1.14e+09,1.25e+09,1.19e+09,1e+09,1.05e+09,9.68e+08,1.11e+09,1.06e+09,1.04e+09,1.13e+09,1.06e+09,1.16e+09,1.17e+09,1.16e+09,1.24e+09,0.0506,0.1805,0.1982,0.0765,0.0079
"P49189",9.3e+08,9.91e+08,9.09e+08,9.61e+08,1.06e+09,9.78e+08,1.14e+09,1.13e+09,1.09e+09,1.2e+09,1.2e+09,1.16e+09,1.21e+09,1.15e+09,1.09e+09,1.22e+09,1.12e+09,1.23e+09,0.1541,8e-04,1e-04,1e-04,0
"Q99961",1.49e+09,1.29e+09,1.45e+09,1.75e+09,1.85e+09,1.77e+09,1.6e+09,1.64e+09,1.52e+09,1.75e+09,1.67e+09,1.58e+09,1.54e+09,1.66e+09,1.43e+09,1.17e+09,1.2e+09,1.2e+09,0.0088,0.0414,0.0088,0.0534,0.0044
"Q9NQW7",8.03e+08,7.66e+08,7.78e+08,9.13e+08,8.86e+08,8.8e+08,1e+09,9.83e+08,1.02e+09,1.07e+09,1.06e+09,1.18e+09,1.09e+09,1.09e+09,1.13e+09,1.16e+09,1.21e+09,1.2e+09,0.0079,0,0,0,0
"O95336",1.16e+09,1.17e+09,1.13e+09,1.08e+09,1.26e+09,1.26e+09,1.27e+09,1.3e+09,1.37e+09,1.3e+09,1.26e+09,1.26e+09,1.19e+09,1.15e+09,1.18e+09,1.19e+09,1.22e+09,1.13e+09,0.2547,0.0045,0.0101,0.1764,0.1042
"P32969",1.08e+09,1.34e+09,1.14e+09,1.43e+09,1.5e+09,1.33e+09,1.2e+09,1.11e+09,1.13e+09,1.28e+09,1.31e+09,1.1e+09,1.41e+09,1.27e+09,1.29e+09,1.19e+09,1.16e+09,1.19e+09,0.0489,0.2505,0.1639,0.046,0.1742
"P54578",1.12e+09,9.96e+08,9.69e+08,1.03e+09,1.22e+09,9.26e+08,1.09e+09,1.04e+09,1.04e+09,1.11e+09,1.11e+09,9e+08,1.15e+09,1.15e+09,1.06e+09,1.17e+09,1.16e+09,1.21e+09,0.3715,0.2463,0.2286,0.0513,0.0084
"P46783",1.88e+09,1.78e+09,1.83e+09,1.67e+09,1.65e+09,1.95e+09,1.33e+09,1.26e+09,1.33e+09,1.22e+09,1.33e+09,1.38e+09,1.21e+09,1.35e+09,1.36e+09,1.14e+09,1.18e+09,1.21e+09,0.2501,0,0,0,0
"Q15907",1.61e+09,1.59e+09,1.58e+09,1.29e+09,1.39e+09,1.42e+09,1.14e+09,1.16e+09,1.15e+09,1.09e+09,1.19e+09,1.16e+09,1.15e+09,1.16e+09,1.14e+09,1.19e+09,1.19e+09,1.13e+09,0.0024,0,0,0,0
"P26447",8.03e+08,9.18e+08,9.25e+08,8.58e+08,9.82e+08,9.22e+08,1.12e+09,1.27e+09,1.04e+09,1.19e+09,1.19e+09,1.08e+09,1.1e+09,1.04e+09,1.15e+09,1.27e+09,1.19e+09,1.06e+09,0.3186,0.0018,9e-04,0.0025,3e-04
"Q9Y265",1.5e+09,1.44e+09,1.45e+09,1.39e+09,1.51e+09,1.36e+09,1.51e+09,1.52e+09,1.41e+09,1.48e+09,1.38e+09,1.34e+09,1.3e+09,1.25e+09,1.31e+09,1.18e+09,1.16e+09,1.18e+09,0.2566,0.2682,0.0659,0.001,0
"Q9NVD7",1.25e+09,1.27e+09,1.31e+09,1.23e+09,1.21e+09,1.27e+09,1.24e+09,1.25e+09,1.25e+09,1.11e+09,1.12e+09,1.11e+09,1.09e+09,1.09e+09,1.19e+09,1.16e+09,1.19e+09,1.16e+09,0.2082,0.1574,3e-04,3e-04,0.0021
"P61106",1.31e+09,1.25e+09,1.19e+09,1.35e+09,1.45e+09,1.27e+09,9.04e+08,9.73e+08,1.04e+09,1.08e+09,1.08e+09,1.1e+09,1.17e+09,1.19e+09,1.14e+09,1.21e+09,1.13e+09,1.17e+09,0.1128,1e-04,0.0043,0.0452,0.0337
"P11177",5.83e+08,5.97e+08,5.82e+08,6.29e+08,6.42e+08,6.15e+08,8.95e+08,8.76e+08,8.56e+08,9.32e+08,9.5e+08,8.31e+08,1.03e+09,1.01e+09,9.57e+08,1.19e+09,1.09e+09,1.23e+09,0.1034,0,0,0,0
"P35613",1.79e+09,1.6e+09,1.83e+09,2.11e+09,2.51e+09,1.97e+09,2.13e+09,2.27e+09,2.01e+09,1.86e+09,1.7e+09,1.37e+09,1.4e+09,1.19e+09,1.15e+09,1.21e+09,1.06e+09,1.22e+09,0.032,0.0168,0.1277,7e-04,1e-04
"Q12904",1.17e+09,1.08e+09,1.06e+09,1.09e+09,1.16e+09,1.08e+09,1.12e+09,1.1e+09,1.06e+09,1.19e+09,1.18e+09,1.1e+09,1.19e+09,1.12e+09,1.19e+09,1.17e+09,1.16e+09,1.16e+09,0.4164,0.2945,0.0763,0.0519,0.0356
"P49591",1.27e+09,1.15e+09,1.16e+09,1.07e+09,1.08e+09,1.06e+09,9.45e+08,9.55e+08,9.76e+08,1.02e+09,9.63e+08,8.89e+08,1.1e+09,1e+09,1.06e+09,1.16e+09,1.14e+09,1.18e+09,0.0278,1e-04,1e-04,0.0025,0.1001
"Q99436",1.35e+09,1.16e+09,1.03e+09,8.03e+08,1.38e+09,8.8e+08,1.09e+09,1.19e+09,9.54e+08,1.15e+09,1.12e+09,8.47e+08,1.39e+09,9.85e+08,8.56e+08,1.14e+09,1.04e+09,1.31e+09,0.1514,0.1822,0.0842,0.0998,0.163
"P35222",1.21e+09,1.28e+09,1.29e+09,1.52e+09,1.41e+09,1.45e+09,1.6e+09,1.57e+09,1.59e+09,1.61e+09,1.55e+09,1.53e+09,1.26e+09,1.35e+09,1.3e+09,1.13e+09,1.18e+09,1.17e+09,0.006,0,0,0.1028,0.0087
"P15121",9.86e+08,9.21e+08,8.01e+08,9.86e+08,9.97e+08,9.13e+08,1.2e+09,1.1e+09,1.27e+09,1.23e+09,1.21e+09,1.19e+09,1.23e+09,1.08e+09,1.07e+09,1.17e+09,1.12e+09,1.19e+09,0.2148,7e-04,3e-04,0.0015,4e-04
"Q02818",1.26e+09,1.21e+09,1.27e+09,1.18e+09,1.34e+09,1.14e+09,1.02e+09,1.01e+09,8.81e+08,1.06e+09,1.06e+09,9.68e+08,1.17e+09,1.12e+09,1.06e+09,1.17e+09,1.07e+09,1.24e+09,0.3532,3e-04,0.0012,0.0158,0.0331
"P13804",1.01e+09,9.13e+08,8.99e+08,7.86e+08,9.14e+08,8.35e+08,1.24e+09,1.28e+09,1.16e+09,1.44e+09,1.37e+09,1.2e+09,1.27e+09,1.08e+09,1.04e+09,1.18e+09,1.08e+09,1.21e+09,0.0724,2e-04,0,0.0017,4e-04
"Q16881",2.24e+09,2.34e+09,2.22e+09,1.62e+09,1.68e+09,1.73e+09,1.68e+09,1.58e+09,1.66e+09,1.5e+09,1.54e+09,1.66e+09,1.19e+09,1.21e+09,1.31e+09,1.17e+09,1.18e+09,1.06e+09,1e-04,0,0,0,0
"P78344",1.39e+09,1.34e+09,1.36e+09,1.44e+09,1.52e+09,1.36e+09,1.23e+09,1.26e+09,1.22e+09,1.3e+09,1.23e+09,1.13e+09,1.25e+09,1.22e+09,1.19e+09,1.16e+09,1.08e+09,1.16e+09,0.1468,0.0105,0.0032,0.0026,1e-04
"Q02809",1.81e+09,1.79e+09,1.77e+09,2.12e+09,2.15e+09,2.04e+09,1.54e+09,1.51e+09,1.56e+09,1.22e+09,1.17e+09,1.08e+09,1.13e+09,1.07e+09,1.13e+09,1.13e+09,1.12e+09,1.15e+09,0.0013,3e-04,0,0,0
"Q9Y3U8",1.25e+09,1.35e+09,1.44e+09,1.24e+09,1.51e+09,1.19e+09,1.11e+09,1.13e+09,1.15e+09,1.33e+09,1.2e+09,9.93e+08,1.35e+09,1.15e+09,1.17e+09,1.14e+09,1.11e+09,1.14e+09,0.3791,0.027,0.0351,0.0746,0.0118
"P51572",1.02e+09,1e+09,9.28e+08,1.1e+09,1.37e+09,1.06e+09,8.87e+08,9.14e+08,8.97e+08,1.07e+09,9.52e+08,9.47e+08,1.14e+09,1.05e+09,1.08e+09,1.08e+09,1.14e+09,1.18e+09,0.0138,0.0522,0.232,0.0183,0.0036
"Q92973",1.5e+09,1.49e+09,1.52e+09,1.47e+09,1.33e+09,1.49e+09,1.61e+09,1.7e+09,1.7e+09,1.49e+09,1.46e+09,1.59e+09,1.17e+09,1.23e+09,1.21e+09,1.12e+09,1.2e+09,1.07e+09,0.1563,0.0092,0.2217,0,0
"P48556",9.7e+08,9.5e+08,1.01e+09,9.76e+08,9.33e+08,9.49e+08,1.02e+09,9.37e+08,1.05e+09,1e+09,1.06e+09,9.07e+08,1.09e+09,1.04e+09,1.01e+09,1.16e+09,1.12e+09,1.1e+09,0.3308,0.2247,0.2158,0.0412,0.0016
"Q6UVK1",2.39e+09,2.22e+09,2.2e+09,1.67e+09,1.91e+09,1.55e+09,1.61e+09,1.51e+09,1.41e+09,1.26e+09,1.25e+09,1.05e+09,1.1e+09,9.43e+08,9.4e+08,1.16e+09,1.03e+09,1.19e+09,7e-04,0,0,0,0
"P54819",4.86e+08,4.86e+08,4.95e+08,6.22e+08,6.73e+08,6.09e+08,9.06e+08,9.41e+08,8.78e+08,1.11e+09,1.02e+09,9.94e+08,1.25e+09,1.1e+09,1.08e+09,1.07e+09,1.13e+09,1.17e+09,5e-04,0,0,0,0
"Q9Y617",5.5e+08,6.25e+08,5.94e+08,5.28e+08,4.6e+08,5e+08,6.96e+08,6.19e+08,7.02e+08,6.12e+08,6.64e+08,7.04e+08,7.09e+08,7.59e+08,8.26e+08,1.11e+09,1.19e+09,1.07e+09,0.0237,0.0233,0.0263,3e-04,0
"O14979",1.11e+09,1.29e+09,1.36e+09,1.23e+09,1.33e+09,1.22e+09,1.26e+09,1.41e+09,1.38e+09,1.32e+09,1.34e+09,1.43e+09,1.23e+09,1.22e+09,1.3e+09,1.15e+09,1.13e+09,1.09e+09,0.4384,0.0903,0.0511,0.2369,0.0177
"P30042",3.82e+08,3.42e+08,3.94e+08,5.18e+08,5.28e+08,5e+08,6.66e+08,6.99e+08,6.69e+08,9.13e+08,8.37e+08,8.54e+08,1.08e+09,9.48e+08,1.01e+09,1.11e+09,1.09e+09,1.16e+09,3e-04,0,0,0,0
"P04439",7.9e+08,8.04e+08,7.97e+08,1.05e+09,1.03e+09,9.19e+08,1.37e+09,1.42e+09,1.36e+09,1.56e+09,1.49e+09,1.34e+09,1.31e+09,1.3e+09,1.28e+09,1.07e+09,1.06e+09,1.2e+09,0.0011,0,0,0,0
"Q13423",6.13e+08,6.42e+08,6.22e+08,6.64e+08,6.8e+08,6.49e+08,9.82e+08,9.31e+08,9.43e+08,1.1e+09,1.05e+09,9.74e+08,1.07e+09,9.91e+08,1.04e+09,1.1e+09,1.07e+09,1.16e+09,0.1432,0,0,0,0
"P51665",9.04e+08,1e+09,1.02e+09,1.1e+09,9.39e+08,1.14e+09,9.33e+08,1.01e+09,1.05e+09,9.4e+08,9.81e+08,1.27e+09,9.63e+08,1.2e+09,1.26e+09,1.11e+09,1.17e+09,1.05e+09,0.1644,0.2516,0.065,0.0071,0.0103
"P62244",1.21e+09,1.37e+09,1.19e+09,1.76e+09,1.76e+09,1.92e+09,1.28e+09,1.23e+09,1.41e+09,1.19e+09,1.2e+09,1.45e+09,1.28e+09,1.29e+09,1.38e+09,1.06e+09,1.19e+09,1.07e+09,0.0014,0.2273,0.2137,0.1315,0.0198
"Q96FW1",1.13e+09,1.17e+09,1.15e+09,1.09e+09,1.12e+09,1e+09,1.33e+09,1.35e+09,1.29e+09,1.27e+09,1.3e+09,1.19e+09,1.22e+09,1.13e+09,1.09e+09,1.06e+09,1.1e+09,1.16e+09,0.0862,0.0015,0.0119,0.2351,0.0634
"P12270",1.57e+09,1.4e+09,1.51e+09,1.41e+09,1.5e+09,1.3e+09,1.79e+09,1.67e+09,1.68e+09,1.59e+09,1.67e+09,1.5e+09,1.39e+09,1.19e+09,1.15e+09,1.1e+09,1.08e+09,1.14e+09,0.1854,0.0123,0.0846,0.0014,0
"P08123",3.54e+08,2.9e+08,3.54e+08,7.72e+08,8.07e+08,6.77e+08,7.49e+08,8.37e+08,7.41e+08,2.04e+09,1.81e+09,1.57e+09,1.89e+09,1.66e+09,1.44e+09,1.12e+09,9.93e+08,1.2e+09,1e-04,0,0,0,0
"P00441",9e+08,1.05e+09,1.09e+09,9.27e+08,8.42e+08,9.29e+08,1.1e+09,1.15e+09,1.13e+09,1.06e+09,1.14e+09,1.04e+09,1.03e+09,9.7e+08,8.74e+08,1.1e+09,1.05e+09,1.15e+09,0.1325,0.0748,0.114,0.1217,0.0546
"P20042",1.22e+09,1.11e+09,1.06e+09,9.81e+08,1.24e+09,8.63e+08,1.05e+09,1.11e+09,9.7e+08,1.2e+09,1.16e+09,8.7e+08,1.23e+09,9.15e+08,9e+08,1.09e+09,9.83e+08,1.22e+09,0.1736,0.1388,0.1378,0.0464,0.1261
"O60701",1.54e+09,1.64e+09,1.6e+09,1.48e+09,1.43e+09,1.39e+09,1.35e+09,1.32e+09,1.37e+09,1.26e+09,1.28e+09,1.2e+09,1.11e+09,1.15e+09,1.2e+09,1.1e+09,1.1e+09,1.08e+09,0.0223,4e-04,0,0,0
"P15144",1.75e+09,1.68e+09,1.72e+09,1.91e+09,1.89e+09,1.94e+09,2.2e+09,2.33e+09,2.41e+09,1.91e+09,1.87e+09,1.9e+09,1.38e+09,1.42e+09,1.44e+09,1.07e+09,1.14e+09,1.08e+09,0.021,0,0.0067,0,0
"O00151",1.17e+09,1.16e+09,1.09e+09,1.07e+09,1.19e+09,1.12e+09,1.19e+09,1.17e+09,1.04e+09,1.03e+09,9.95e+08,8.59e+08,9.47e+08,8.28e+08,8.28e+08,1.08e+09,1.05e+09,1.16e+09,0.4021,0.304,9e-04,0,0.0711
"P12081",1.75e+09,1.66e+09,1.65e+09,1.63e+09,1.64e+09,1.58e+09,1.46e+09,1.41e+09,1.43e+09,1.28e+09,1.34e+09,1.22e+09,1.16e+09,1.22e+09,1.2e+09,1.1e+09,1.1e+09,1.09e+09,0.2028,5e-04,0,0,0
"Q9NUQ6",7.46e+08,7.42e+08,6.96e+08,8.19e+08,9.11e+08,7.69e+08,9.44e+08,9.81e+08,9.61e+08,1.35e+09,1.34e+09,1.25e+09,1.25e+09,1.22e+09,1.23e+09,1.07e+09,1.09e+09,1.13e+09,0.0101,0,0,0,0
"Q92598",1.62e+09,1.57e+09,1.5e+09,1.32e+09,1.36e+09,1.34e+09,1.04e+09,8.98e+08,1.02e+09,1.14e+09,1.13e+09,1.1e+09,1.13e+09,1.16e+09,1.15e+09,1.12e+09,1.1e+09,1.07e+09,0.006,0,0,0,0
"P09525",8.25e+08,8.07e+08,7.92e+08,8.08e+08,8.45e+08,8.51e+08,1.05e+09,9.79e+08,1.03e+09,9.74e+08,1.05e+09,9.53e+08,8.99e+08,9.23e+08,9.21e+08,1.1e+09,1.1e+09,1.07e+09,0.2407,0,0,0.001,0
"P24534",1.12e+09,1.06e+09,1.2e+09,1.39e+09,1.35e+09,1.39e+09,1.04e+09,1.14e+09,1.1e+09,1.13e+09,1.05e+09,1.03e+09,9.87e+08,1.11e+09,1.14e+09,1.1e+09,1.14e+09,1.03e+09,0.0094,0.2294,0.0988,0.1112,0.0992
"Q96C90",1.01e+09,9.44e+08,1.04e+09,9.2e+08,1.09e+09,1.06e+09,1.07e+09,1.2e+09,9.75e+08,1.36e+09,1.21e+09,1.32e+09,1.23e+09,1.1e+09,1.16e+09,1.01e+09,1.15e+09,1.1e+09,0.3754,0.1005,6e-04,0.0095,0.039
"Q99714",5.66e+08,5.51e+08,6.05e+08,5.7e+08,5.97e+08,6.26e+08,7.86e+08,7.69e+08,8.04e+08,9.23e+08,9.27e+08,9.81e+08,1.08e+09,9.97e+08,1.1e+09,1.07e+09,1.08e+09,1.1e+09,0.1758,0,0,0,0
"Q5VST9",67400000,2.02e+08,1.02e+08,1.59e+08,9.8e+07,78200000,1.11e+08,2.18e+08,1.16e+08,73300000,75100000,92700000,4.09e+08,4.19e+08,5.1e+08,9.64e+08,1.17e+09,1.11e+09,0.4302,0.1831,0.0904,3e-04,0
"O60716",1.03e+09,9.53e+08,9.33e+08,9.01e+08,1.06e+09,9.31e+08,1.02e+09,9.57e+08,9.73e+08,1.17e+09,1.17e+09,1.08e+09,1.22e+09,1.09e+09,1.15e+09,1.11e+09,1.04e+09,1.09e+09,0.414,0.2682,0.0013,6e-04,0.0063
"P09622",7.35e+08,7.88e+08,7.14e+08,6.65e+08,8.36e+08,6.33e+08,8.58e+08,1.02e+09,8.47e+08,1.2e+09,1.11e+09,9.16e+08,1.15e+09,8.72e+08,9.2e+08,1.06e+09,9.96e+08,1.16e+09,0.2878,0.0105,2e-04,0.001,1e-04
"Q9NSD9",1.24e+09,1.34e+09,1.26e+09,1.17e+09,1.24e+09,1.17e+09,1.13e+09,1.16e+09,1.05e+09,1.12e+09,1.13e+09,1.12e+09,1.14e+09,1.07e+09,1.14e+09,1.08e+09,1.03e+09,1.11e+09,0.1079,0.0027,0.0029,0.0018,2e-04
"P35268",1.36e+09,1.37e+09,1.25e+09,1.38e+09,1.76e+09,1.37e+09,1.09e+09,9.67e+08,1.1e+09,1.2e+09,1.11e+09,9.9e+08,1.25e+09,1.23e+09,1.03e+09,1.12e+09,1.03e+09,1.06e+09,0.0634,8e-04,0.0019,0.0105,4e-04
"Q01813",2.26e+09,2.23e+09,2.11e+09,2.21e+09,2.22e+09,2.01e+09,1.71e+09,1.8e+09,1.81e+09,1.5e+09,1.55e+09,1.48e+09,1.21e+09,1.08e+09,1.16e+09,1.08e+09,1.05e+09,1.06e+09,0.3069,1e-04,0,0,0
"Q16629",1.15e+09,1.29e+09,1.12e+09,1.25e+09,1.48e+09,1.21e+09,1.57e+09,1.56e+09,1.41e+09,1.55e+09,1.44e+09,1.26e+09,1.36e+09,1.18e+09,1.19e+09,1.13e+09,9.59e+08,1.09e+09,0.1473,0.0021,0.008,0.1315,0.0227
"Q15121",6.92e+08,8.32e+08,7.43e+08,7.94e+08,7.82e+08,9.45e+08,7.05e+08,8.01e+08,6.78e+08,6.81e+08,7.46e+08,7.94e+08,7.46e+08,6.73e+08,7.78e+08,1.01e+09,1.01e+09,1.14e+09,0.1507,0.2323,0.2044,0.1708,1e-04
"Q9Y230",1.35e+09,1.31e+09,1.31e+09,1.29e+09,1.37e+09,1.17e+09,1.29e+09,1.18e+09,1.35e+09,1.22e+09,1.28e+09,1.13e+09,1.15e+09,1.01e+09,1.07e+09,1.03e+09,1.06e+09,1.07e+09,0.2562,0.1438,0.0189,1e-04,0
