"ProteinID","C1_1","C1_2","C1_3","C2_1","C2_2","C2_3","C3_1","C3_2","C3_3","C4_1","C4_2","C4_3","C5_1","C5_2","C5_3","C6_1","C6_2","C6_3","log.ratios.C2.vs.C1","log.ratios.C3.vs.C1","log.ratios.C4.vs.C1","log.ratios.C5.vs.C1","log.ratios.C6.vs.C1","FDR.PolySTest.C2.vs.C1","FDR.PolySTest.C3.vs.C1","FDR.PolySTest.C4.vs.C1","FDR.PolySTest.C5.vs.C1","FDR.PolySTest.C6.vs.C1","FDR.limma.C2.vs.C1","FDR.limma.C3.vs.C1","FDR.limma.C4.vs.C1","FDR.limma.C5.vs.C1","FDR.limma.C6.vs.C1","FDR.Miss.test.C2.vs.C1","FDR.Miss.test.C3.vs.C1","FDR.Miss.test.C4.vs.C1","FDR.Miss.test.C5.vs.C1","FDR.Miss.test.C6.vs.C1","FDR.rank.products.C2.vs.C1","FDR.rank.products.C3.vs.C1","FDR.rank.products.C4.vs.C1","FDR.rank.products.C5.vs.C1","FDR.rank.products.C6.vs.C1","FDR.permutation.test.C2.vs.C1","FDR.permutation.test.C3.vs.C1","FDR.permutation.test.C4.vs.C1","FDR.permutation.test.C5.vs.C1","FDR.permutation.test.C6.vs.C1","FDR.t.test.C2.vs.C1","FDR.t.test.C3.vs.C1","FDR.t.test.C4.vs.C1","FDR.t.test.C5.vs.C1","FDR.t.test.C6.vs.C1"
"P60709",37.0266358709312,37.0162939267098,36.963442044444,36.7921706172942,37.0470999734909,36.9197206670147,36.7553338491138,36.8162160912609,36.730242868151,36.8515491643731,36.7428429049306,36.6252733085495,36.9197206670147,36.8162160912609,36.7047077760439,36.7921706172942,36.8515491643731,36.9526352894875,-0.0825,-0.2349,-0.2622,-0.1886,-0.1367,0.4343,0.0336,0.0122,0.0496,0.0631,0.2647,0.0084,0.0031,0.0124,0.0263,0.1086,0.0358,0.0351,0.0256,0.021,0.6773,0.2811,0.338,0.5743,0.691,0.684,0.0512,0.1259,0.9353,0.278,0.3252,0.007,0.0343,0.038,0.0275
"Q8WZ42",24.9494904773214,25.6485594637291,25.2280259766954,26.4613895158529,26.3778247992137,26.3118131598024,32.0895470192696,32.3904877762918,32.7926554753196,35.3369759915434,35.1827550728485,35.0348563777362,36.3908080549124,36.2741294258692,36.1901346032141,36.5339774745299,36.3987919991451,36.7553338491138,1.1083,7.1489,9.9095,11.0097,11.2873,0.0013,4.0561e-13,2.5805e-15,5.2226e-16,2.7827e-16,3e-04,1.014e-13,6.4514e-16,1.3056e-16,6.9568e-17,0.3325,0.0218,0.007,0.0022,0.0015,0.0014,8.443e-07,4.275e-07,3.3247e-06,2.8085e-06,0.036,0.0385,0.0323,0.0144,0.0086,0.1205,0.0011,0.0014,0.001,3e-04
"Q14315",34.6734568420594,34.7047077760439,34.6575738004528,34.9932772739848,34.9932772739848,34.9763041953811,35.5584183337932,35.5061620966618,35.5325268006612,35.9482898192115,35.9085801094095,35.811438950999,36.13766718332,36.1261715444821,36.0511581900653,36.1509640059334,36.1490719465922,36.2066018148029,0.309,0.8538,1.2109,1.4264,1.4903,0.001,4.598e-09,2.7052e-11,2.2222e-12,6.0297e-13,2e-04,1.1495e-09,6.763e-12,5.5556e-13,1.5074e-13,1,1,1,1,1,0.1941,0.0114,0.0063,0.0055,0.0054,0.0244,0.2053,0.0323,0.0144,0.0086,0.059,6e-04,0.0025,5e-04,1e-04
"P14618",35.7503504415996,35.8608269779611,35.8209774653546,36.001689513801,35.9219384922645,36.0100529867356,35.9826925233436,35.9219384922645,36.0430303091819,35.7478522677444,35.7873130536449,35.8018369518877,35.7453497605412,35.6760870981041,35.7200830019308,35.8304533289176,35.8398673593255,35.8090444358586,0.1672,0.1718,-0.0317,-0.0969,0.0157,0.0744,0.0155,0.188,0.0696,0.5987,0.0186,0.0039,0.1677,0.0271,0.1549,1,1,1,1,1,0.5172,0.4796,0.7065,0.7098,0.5488,0.0525,0.0639,0.047,0.0232,0.2994,0.1069,0.0242,0.164,0.0359,0.1528
"P48681",35.2011336021634,35.0911245973829,35.1716145152433,35.0632647929219,35.1566253410239,35.0389491323701,35.1452803674298,35.1223192189865,34.9932772739848,35.2264764502778,35.2584193427806,35.0632647929219,35.5894452294138,35.5150039734136,35.3892059503159,35.6628876003492,35.6225486712129,35.8185987425719,-0.0683,-0.0677,0.0281,0.3433,0.5467,0.2722,0.1298,0.6287,0.0011,0,0.297,0.1813,0.2096,3e-04,2.5557e-06,1,1,1,1,1,0.6814,0.5852,0.684,0.2013,0.093,0.0681,0.0325,0.2108,0.0269,0.012,0.2673,0.1441,0.2309,0.0109,0.0031
"P17661",33.4334057542265,33.5866520145222,33.5527046825988,34.2264764502778,34.0989867151559,34.1452803674298,34.8375196044691,34.7799959033481,34.730242868151,35.0511581900653,35.1107001357197,34.9848156952366,35.5091154140511,35.5002372627047,35.3730862849527,35.6143437483912,35.6917687203364,35.7701816135211,0.6327,1.2583,1.5246,1.9366,2.1678,0,1.7726e-09,6.0819e-11,2.1136e-12,3.0198e-13,8.3113e-06,4.4315e-10,1.5205e-11,5.2839e-13,7.5495e-14,0.1392,0.0024,0.4097,0.0356,0.0015,0.0189,0.0022,0.0026,0.0024,0.0017,0.0244,0.3455,0.0442,0.019,0.0086,0.059,0.0016,0.0011,3e-04,2e-04
"P68032",33.8422112997938,33.8973528539863,34.3633273184903,34.5866520145222,32.0050407233006,34.5866520145222,34.1300136107765,33.9677421818777,34.2827838911798,32.6565086877865,34.3436090838758,34.7701816135211,35.0832193992976,35.3135170187194,35.5977925721274,35.6575738004528,35.6575738004528,35.4427034988086,-0.3082,0.0925,-0.1109,1.2972,1.5517,1,1,0.8195,0.0323,0.0165,0.3829,0.334,0.2398,0.0174,0.0057,0.74,1,0.4097,1,1,1,0.758,1,0.0108,0.0055,0.9845,0.4567,0.9793,0.0232,0.0146,0.445,0.2488,0.2689,0.0058,0.0036
"P11055",21.0019578972156,22.0258046391699,21.1764556284477,19.110442527494,21.3100801925779,19.9742129067327,21.3645279766003,21.3962368363276,21.3751752207998,30.3087790997127,29.8279009732341,29.9399971913948,34.5754247590989,34.369840625449,34.3567844726236,35.5894452294138,35.4550080087117,35.6088477606364,-1.2698,-0.0228,8.6242,13.0326,14.1497,0.084,0.7071,1.2114e-10,8.1953e-13,1.3878e-13,0.021,0.3536,3.0285e-11,2.0488e-13,3.4696e-14,1,1,0.0123,0.0022,0.0015,0.6378,1,3.1961e-06,4.3809e-07,4.4331e-07,0.9915,0.199,0.0386,0.0144,0.0086,0.2375,0.3232,0.0022,0.0014,9e-04
"Q15149",34.7750971039353,34.7352960958773,34.7047077760439,34.8746327774862,34.8746327774862,34.7897438798997,35.0989867151559,35.0672778554286,35.1300136107765,35.3600596046564,35.3795557802822,35.2372028568709,35.4853178428689,35.411475114157,35.411475114157,35.535426691167,35.4942879963735,35.5697781959578,0.108,0.3604,0.5872,0.6977,0.7948,0.0976,1e-04,2.2414e-07,1.886e-08,2.4857e-09,0.0971,0,5.6035e-08,4.7149e-09,6.2142e-10,1,1,1,1,1,0.6096,0.1923,0.0712,0.0452,0.0351,0.0244,0.0662,0.0615,0.0144,0.012,0.1412,0.0026,0.0051,6e-04,2e-04
"P35579",35.3202585965984,35.3101343793247,35.3369759915434,35.3763246590192,35.3892059503159,35.2654227305183,35.5061620966618,35.4611211324383,35.4240476995282,35.3892059503159,35.3665876476539,35.1716145152433,35.2443097433651,35.1490719465922,35.13766718332,35.2619252862821,35.2084199562419,35.3665876476539,0.0212,0.1413,-0.0133,-0.1454,-0.0435,1,0.0745,0.9489,0.0686,0.4475,0.4288,0.0336,0.2372,0.0172,0.1119,1,1,1,1,1,0.7922,0.5194,0.7407,0.6361,0.6235,0.9461,0.0248,0.6141,0.0521,0.7615,0.416,0.0217,0.2647,0.0246,0.1076
"Q09666",36.1771955475066,36.0752706461821,36.0871774128663,36.0652727195382,36.1660118090139,35.9152747619835,36.0989867151559,36.0970251988226,36.0079666594872,35.9461121659061,35.8860375407584,35.6917687203364,35.4793066048351,35.340296349835,35.2654227305183,35.0348563777362,34.9677421818777,35.1261715444821,-0.0644,-0.0452,-0.2719,-0.7515,-1.0703,0.5492,0.367,0.0133,1.3718e-06,1.585e-08,0.3256,0.2514,0.0033,3.4294e-07,3.9626e-09,1,1,1,1,1,0.7082,0.6217,0.3288,0.0591,0.0185,0.1373,0.0917,0.9908,0.019,0.0086,0.3602,0.1613,0.038,0.0034,5e-04
"P68104",35.0142166116772,35.2228831855538,35.1641393946812,35.1566253410239,35.1566253410239,35.1300136107765,34.9461121659061,34.8928373728638,34.8422112997938,34.9504641904458,34.9417469733447,34.8422112997938,35.0307519794035,34.963442044444,34.9461121659061,34.9805662222352,34.9677421818777,35.0832193992976,0.014,-0.24,-0.2223,-0.1536,-0.1232,0.8959,0.0064,0.007,0.0401,0.0656,0.448,0.0016,0.0018,0.01,0.0164,1,1,1,1,1,0.8286,0.2963,0.4089,0.6293,0.7132,0.2481,0.1122,0.0799,0.8197,0.6395,0.4684,0.0356,0.0354,0.0494,0.0505
"P07355",35.9677421818777,35.9826925233436,35.9890526881231,36.0712797859861,36.1641393946812,36.1165213744484,35.9698874537092,35.8631371386483,35.9417469733447,35.6468871216555,35.578239774706,35.5612666961022,35.2478501010704,35.2300607876269,35.0911245973829,34.9890526881231,35.0100529867356,34.9461121659061,0.1375,-0.0549,-0.3844,-0.7902,-0.9981,0.0976,0.0993,0,6.952e-09,2.5546e-10,0.0528,0.1594,6.5581e-06,1.738e-09,6.3864e-11,1,1,1,1,1,0.5403,0.6009,0.1769,0.0497,0.0267,0.0244,0.0248,0.0676,0.019,0.0086,0.1235,0.1126,0.0069,0.005,5e-04
"P08670",35.3469142285995,35.4641680079972,35.3436090838758,35.0142166116772,35.3665876476539,34.92415291333,35.5584183337932,35.5726042400365,35.405147494185,35.427173800515,35.4209148100433,34.9890526881231,35.2047813791785,34.9152747619835,34.7553338491138,34.8233522725425,34.6681819000188,34.9720295402808,-0.2832,0.1272,-0.1059,-0.4264,-0.5637,0.4403,0.2159,0.6089,0.0187,0.0023,0.1101,0.1839,0.1522,0.0047,6e-04,1,1,1,1,1,0.3554,0.5624,0.6463,0.2948,0.1952,0.4197,0.054,0.9468,0.1395,0.0457,0.2313,0.0782,0.1903,0.0349,0.0068
"P02545",33.8422112997938,33.92415291333,33.8973528539863,33.9504641904458,33.9677421818777,33.8973528539863,34.6198188784574,34.5697781959578,34.5237919906836,34.7750971039353,34.6943658318224,34.4942879963735,34.8468877870033,34.7503504415996,34.5641094458711,34.813829498424,34.7503504415996,34.8973528539863,0.0506,0.6832,0.7667,0.8325,0.9326,0.338,8.6216e-06,1.2203e-06,3.0523e-07,5.1328e-08,0.357,2.1554e-06,3.0507e-07,7.6307e-08,1.2832e-08,1,1,1,1,1,0.7301,0.0281,0.0351,0.0313,0.0229,0.0845,0.0618,0.1076,0.0335,0.0086,0.2431,0.0016,0.0112,0.007,7e-04
"P21333",35.4396109037532,35.4611211324383,35.4302931423591,35.2965239478061,35.427173800515,35.2862311927982,35.5267094740659,35.535426691167,35.4177751025127,35.3827796811565,35.3469142285995,35.1901346032141,35.0100529867356,34.8746327774862,34.8042434495948,34.6628876003492,34.6307071946001,34.7750971039353,-0.107,0.0496,-0.1371,-0.5474,-0.7541,0.4502,0.2159,0.1274,7.6327e-06,1.4437e-07,0.1783,0.2185,0.0319,1.9082e-06,3.6092e-08,1,1,1,1,1,0.5997,0.6987,0.5338,0.1504,0.0768,0.1501,0.054,0.4826,0.0371,0.0086,0.2177,0.1463,0.0732,0.0097,0.0024
"P04075",33.8973528539863,33.9848156952366,33.9063416372135,33.92415291333,33.8233522725425,33.9932772739848,34.0911245973829,34.0348563777362,34.001689513801,34.1145835702069,34.0348563777362,33.8883077143833,34.4823153547074,34.4083147732636,34.3827796811565,34.5641094458711,34.6088477606364,34.5922330467855,-0.0159,0.1131,0.0831,0.495,0.6589,0.2927,0.1768,0.3176,7.454e-06,2.0646e-07,0.4442,0.0589,0.0794,1.8635e-06,5.1614e-08,1,1,1,1,1,0.8126,0.5786,0.5996,0.1046,0.0603,0.0732,0.0678,0.2346,0.0269,0.0086,0.4558,0.035,0.1353,0.0013,8e-04
"P08238",34.4702425224068,34.4942879963735,34.4146285471958,34.5697781959578,34.6734568420594,34.5120626981015,34.4083147732636,34.3236176086884,34.3303122612624,34.5296210694858,34.5002372627047,34.3436090838758,34.6143437483912,34.6252733085495,34.535426691167,34.5584183337932,34.5237919906836,34.5697781959578,0.1254,-0.1056,-0.0019,0.132,0.0909,0.3855,0.1263,0.7933,0.072,0.0757,0.0964,0.061,0.2644,0.018,0.0378,1,1,1,1,1,0.5741,0.5021,0.7299,0.4244,0.4487,0.2662,0.0421,0.2952,0.045,0.0195,0.1931,0.0362,0.2885,0.0164,0.0156
"P07951",31.7211022142945,32.0479125305616,32.4433212230916,32.5799261513338,32.4284223467122,32.6458140869903,32.3646323344462,32.4383720071198,32.2336362418507,32.6881248918483,32.5663796194959,32.5866520145222,33.9417469733447,33.9152747619835,33.7352960958773,34.6033307556688,34.3827796811565,34.4883140953289,0.4806,0.2748,0.5429,1.7933,2.4207,0.0567,0.1661,0.004,2.2629e-08,4.0073e-10,0.0142,0.0415,0.001,5.6573e-09,1.0018e-10,0.283,0.9165,0.1248,0.0022,0.0015,0.3851,0.5252,0.1741,0.003,0.0011,0.8119,0.3019,0.8369,0.019,0.012,0.2185,0.1459,0.0634,0.0084,0.0034
"P11021",33.4209148100433,33.4457894786823,33.5296210694858,33.7652493179789,33.8515491643731,33.7453497605412,33.5527046825988,33.5641094458711,33.4823153547074,33.8515491643731,33.7945932795611,33.5866520145222,34.2827838911798,34.1901346032141,34.1603872598201,34.3633273184903,34.2478501010704,34.3436090838758,0.3219,0.0676,0.2788,0.7457,0.8528,0.012,0.1166,0.0036,2.142e-07,2.807e-08,0.003,0.1665,9e-04,5.3549e-08,7.0175e-09,0.0066,1,0.0496,0.0022,0.0015,0.1861,0.6732,0.3236,0.0396,0.0303,0.6114,0.0292,0.4746,0.0144,0.0086,0.0719,0.0972,0.0395,0.001,4e-04
"P08133",33.8233522725425,33.7553338491138,33.7047077760439,34.0752706461821,34.0832193992976,33.9763041953811,34.2336362418507,34.167881796367,34.2478501010704,34.289670276765,34.2689117165982,34.2264764502778,34.3236176086884,34.1901346032141,34.2407606762841,34.289670276765,34.2549048586043,34.2619252862821,0.2838,0.4553,0.5006,0.4904,0.5077,0.0045,8.6216e-06,1.4935e-06,1.1676e-06,5.0701e-07,0.0011,2.1554e-06,3.7336e-07,2.9191e-07,1.2675e-07,1,1,1,1,1,0.2334,0.1134,0.1102,0.1089,0.1074,0.3095,0.1371,0.0615,0.0706,0.012,0.0862,0.0042,0.0038,0.002,0.0024
"Q9UPN3",33.0974177155006,32.9848156952366,32.9643030979109,33.3168917455,33.27586447724,33.2192809488736,33.3827796811565,33.4083147732636,33.4334057542265,34.0752706461821,34.0183682549476,33.932976763717,34.3033452136621,34.2120493796426,34.2407606762841,34.1300136107765,34.0989867151559,34.1901346032141,0.2552,0.3927,0.9934,1.2365,1.1242,0.013,1e-04,1.1692e-09,4.4884e-11,9.1722e-11,0.0033,0,2.923e-10,1.1221e-11,2.293e-11,1,1,0.007,0.0022,0.0015,0.2874,0.1618,0.0138,0.0085,0.0137,0.0244,0.0248,0.0442,0.0144,0.0086,0.0895,0.0112,0.0014,7e-04,4e-04
"O43707",34.4702425224068,34.4019732463898,34.4396109037532,34.3236176086884,34.3763246590192,34.2965239478061,34.4396109037532,34.5002372627047,34.3892059503159,34.4334057542265,34.4209148100433,34.2619252862821,34.2192809488736,34.175337601286,34.1452803674298,34.0911245973829,34.0430303091819,34.2120493796426,-0.1051,0.0057,-0.0652,-0.2573,-0.3219,0.5685,0.2789,0.421,0.0019,2e-04,0.1421,0.3463,0.1052,5e-04,0,1,1,1,1,1,0.5961,0.7189,0.6609,0.4721,0.4326,0.9624,0.0697,0.9095,0.0371,0.0491,0.1207,0.3093,0.1413,0.0023,0.0075
"Q9BVA1",33.7047077760439,33.9848156952366,33.9063416372135,34.0911245973829,33.8608269779611,34.0183682549476,34.13766718332,34.175337601286,34.1223192189865,33.9504641904458,33.879205507276,33.8422112997938,34.0672778554286,33.9677421818777,33.9417469733447,34.0430303091819,34.0911245973829,34.1223192189865,0.1248,0.2798,0.0253,0.127,0.2202,0.6097,0.0092,0.6453,0.1578,0.0133,0.1524,0.0023,0.2151,0.0394,0.0033,1,1,1,1,1,0.6983,0.3209,0.7152,0.4653,0.3269,0.9742,0.1758,0.2717,0.919,0.093,0.2975,0.0516,0.2505,0.0928,0.034
"Q14204",34.0100529867356,33.932976763717,33.8883077143833,33.9848156952366,34.0511581900653,33.9417469733447,33.9417469733447,33.932976763717,33.9504641904458,33.9417469733447,33.8973528539863,33.8608269779611,33.9677421818777,33.8973528539863,33.9417469733447,34.0752706461821,34.0672778554286,34.0752706461821,0.0488,-0.002,-0.0438,-0.0082,0.1288,1,0.4037,0.3836,0.9073,0.022,0.2754,0.3562,0.1279,0.2268,0.0055,1,1,1,1,1,0.7245,0.7009,0.6901,0.6188,0.4,0.7695,0.1009,0.1425,0.9915,0.0146,0.32,0.3253,0.1437,0.2284,0.0233
"P06733",34.535426691167,34.5810493082928,34.6252733085495,34.5697781959578,34.6307071946001,34.5584183337932,34.5866520145222,34.5810493082928,34.5296210694858,34.289670276765,34.3369759915434,34.2549048586043,34.0911245973829,34.1068062196152,33.92415291333,34.0348563777362,34.0911245973829,34.0100529867356,0.0057,-0.0148,-0.2867,-0.5399,-0.5352,0.3696,0.4615,5e-04,7.4723e-07,5.0741e-07,0.4737,0.3121,1e-04,1.8681e-07,1.2685e-07,1,1,1,1,1,0.8153,0.6752,0.3066,0.1623,0.206,0.0924,0.1154,0.0615,0.0501,0.0215,0.4767,0.2517,0.0045,0.0059,5e-04
"P08758",33.879205507276,33.9763041953811,34.0266358709312,34.0511581900653,34.1901346032141,34.0989867151559,34.3369759915434,34.2965239478061,34.1528535871347,34.0266358709312,34.0752706461821,33.8973528539863,33.8328126017916,33.879205507276,33.8515491643731,34.0672778554286,34.0592405363632,34.0100529867356,0.1527,0.3014,0.039,-0.1062,0.0848,0.2807,0.0021,0.6912,0.1305,0.2031,0.0702,5e-04,0.1728,0.0435,0.0508,1,1,1,1,1,0.536,0.2751,0.6739,0.7032,0.4641,0.2939,0.0746,0.4432,0.0587,0.1834,0.1615,0.0188,0.2041,0.0512,0.0505
"P00488",26.2225089717279,24.6703364061244,25.194602975158,28.9567081316027,28.9202532560963,28.7957547139785,29.681437996721,29.848940648801,30.0608515862691,32.3303122612624,32.2393386012149,31.9780105173315,33.541209043761,33.4580678084607,33.4209148100433,34.0100529867356,34.0266358709312,34.0911245973829,3.5284,4.5013,6.8201,8.1109,8.6801,8.6376e-07,5.8617e-09,1.5797e-11,1.8006e-12,3.0899e-13,2.1594e-07,1.4654e-09,3.9492e-12,4.5016e-13,7.7248e-14,0.4656,0.1797,0.0279,0.0063,0.0015,3.4477e-06,5.7092e-06,0,0,0,0.2785,0.0662,0.0323,0.0144,0.0086,0.1023,0.0125,0.0069,0.0046,0.0026
"P00338",34.2192809488736,33.9763041953811,34.001689513801,34.6468871216555,34.6143437483912,34.5922330467855,34.2549048586043,34.3369759915434,34.3892059503159,34.1901346032141,34.0672778554286,34.0430303091819,33.9417469733447,34.0183682549476,33.9677421818777,33.9932772739848,33.9848156952366,33.9848156952366,0.5521,0.2613,0.0344,-0.0898,-0.0781,1e-04,0.0062,0.7392,0.258,0.2383,0,0.0016,0.1848,0.0645,0.0596,1,1,1,1,1,0.0414,0.3563,0.6901,0.7316,0.6819,0.0313,0.2729,0.4091,0.1395,0.1944,0.1035,0.0432,0.2342,0.1182,0.1015
"Q9Y490",34.4519417056639,34.3827796811565,34.4083147732636,34.4641680079972,34.4762915670796,34.4209148100433,34.3827796811565,34.3892059503159,34.3502118187001,34.2407606762841,34.2264764502778,34.1901346032141,34.0752706461821,34.0348563777362,34.0511581900653,33.8973528539863,33.9063416372135,33.9848156952366,0.0394,-0.0403,-0.1952,-0.3606,-0.4848,0.1952,0.2353,0.0019,4.8095e-06,1.1593e-07,0.3013,0.1794,5e-04,1.2024e-06,2.8984e-08,1,1,1,1,1,0.744,0.6303,0.428,0.3284,0.2421,0.0488,0.0588,0.1425,0.0401,0.0086,0.2527,0.0946,0.0055,0.0015,8e-04
"P12277",27.9483768570107,27.8973528539863,27.8504318065988,29.3044336294368,29.2284847762035,29.1794960827678,31.1300136107765,31.2364902389058,31.2814026607814,33.0479125305616,33.0100529867356,32.7809736702719,33.7848781247278,33.7352960958773,33.6088477606364,33.8422112997938,33.8422112997938,33.932976763717,1.3388,3.3172,5.0476,5.811,5.9737,1.0529e-07,2.0092e-13,3.2596e-16,3.9159e-17,2.0042e-17,2.6323e-08,5.0231e-14,8.149e-17,9.7898e-18,5.0106e-18,0.4656,0.0552,0.0123,0.0022,0.0015,3e-04,0,0,0,1e-04,0.0244,0.9156,0.0323,0.0144,0.0086,0.0115,6e-04,0.0014,2e-04,0
"P23528",34.1974765785553,34.2407606762841,34.2407606762841,34.1452803674298,34.2407606762841,34.175337601286,34.3236176086884,34.289670276765,34.2478501010704,34.13766718332,34.175337601286,34.0511581900653,34.001689513801,33.9152747619835,33.9932772739848,33.8422112997938,33.8042434495948,33.8883077143833,-0.0392,0.0607,-0.1049,-0.2563,-0.3814,0.6564,0.1539,0.1067,5e-04,7.2451e-06,0.3282,0.1308,0.0267,1e-04,1.8113e-06,1,1,1,1,1,0.744,0.6788,0.5845,0.4724,0.3571,0.1909,0.0385,0.5932,0.0144,0.0086,0.2942,0.0601,0.0526,0.0051,0.0011
"P60174",33.1452803674298,33.2478501010704,33.3567844726236,33.5641094458711,33.5061620966618,33.6943658318224,33.879205507276,33.8973528539863,33.8973528539863,33.8422112997938,33.8515491643731,33.932976763717,33.6839492158771,33.92415291333,33.8608269779611,33.8042434495948,33.8973528539863,33.7750971039353,0.3382,0.6413,0.6256,0.573,0.5756,0.0131,7.5548e-06,4.5523e-06,7.4221e-06,4.6179e-06,0.0033,1.8887e-06,1.1381e-06,1.8555e-06,1.1545e-06,0.1392,0.0024,0.007,0.0022,0.0015,0.2353,0.0394,0.0646,0.0888,0.0858,0.6309,0.056,0.0594,0.114,0.0328,0.1019,0.0135,0.007,0.0054,0.0027
"P13639",34.1068062196152,34.0592405363632,34.0183682549476,33.9763041953811,34.1452803674298,33.9152747619835,33.6522403561497,33.6734568420594,33.6628876003492,33.8328126017916,33.8700455079905,33.7047077760439,33.9417469733447,33.8700455079905,33.8700455079905,33.7945932795611,33.7453497605412,33.8233522725425,-0.0492,-0.3986,-0.2589,-0.1675,-0.2737,0.7816,2e-04,0.0031,0.0318,0.001,0.3251,0,8e-04,0.008,3e-04,1,1,1,1,1,0.7343,0.1101,0.3387,0.5976,0.4913,0.2605,0.0248,0.1579,0.2905,0.2555,0.3871,0.0074,0.0197,0.0086,0.0018
"Q13813",33.5866520145222,33.4580678084607,33.5296210694858,33.6522403561497,33.6088477606364,33.6198188784574,33.7750971039353,33.7453497605412,33.6415139495567,33.8515491643731,33.8042434495948,33.7251718786036,33.8422112997938,33.813829498424,33.7652493179789,33.8042434495948,33.7251718786036,33.8233522725425,0.1022,0.1959,0.2689,0.2823,0.2595,0.3054,0.0072,9e-04,5e-04,6e-04,0.126,0.0034,2e-04,1e-04,2e-04,0.1392,0.0024,0.4097,0.0356,0.0015,0.6389,0.4303,0.3183,0.2438,0.266,0.2036,0.9758,0.3543,0.0932,0.0491,0.1923,0.0247,0.0104,0.0065,0.0043
"P55072",33.27586447724,33.3033452136621,33.289670276765,33.3033452136621,33.2619252862821,33.289670276765,33.3956037215141,33.3436090838758,33.3956037215141,33.3827796811565,33.4334057542265,33.4457894786823,33.6734568420594,33.6943658318224,33.6415139495567,33.7352960958773,33.7750971039353,33.7149761114977,-0.0046,0.0886,0.131,0.3802,0.4522,0.0976,0.0756,0.0198,1.7637e-06,1.634e-07,0.472,0.0378,0.005,4.4092e-07,4.0851e-08,1,1,1,0.0022,0.0015,0.8122,0.6293,0.5214,0.1706,0.1306,0.0244,0.0205,0.0386,0.019,0.0086,0.4481,0.0237,0.0143,0.0011,8e-04
"P07237",33.3827796811565,33.2619252862821,33.369840625449,33.4334057542265,33.6088477606364,33.4702425224068,33.3168917455,33.3303122612624,33.2336362418507,33.2619252862821,33.2336362418507,33.0332160193549,33.5641094458711,33.4457894786823,33.3033452136621,33.7553338491138,33.5977925721274,33.7453497605412,0.166,-0.0446,-0.1619,0.0996,0.3613,0.4064,0.1298,0.094,0.3141,9e-04,0.1016,0.252,0.03,0.0785,2e-04,0.74,1,1,1,0.0015,0.4958,0.6355,0.5011,0.4847,0.1932,0.2593,0.0325,0.047,0.4821,0.012,0.1707,0.1782,0.0721,0.108,0.0041
"P13535",25.9737751294449,NA,22.5960514096889,NA,23.0608515862691,26.384427534038,21.8073486323927,22.145693374677,22.2534966642115,31.7809736702719,31.4032437837162,31.3672388302607,33.6734568420594,33.6198188784574,33.6307071946001,33.6415139495567,33.7352960958773,33.6839492158771,0.4377,-2.2161,7.2322,9.3564,9.402,1,0.0816,0,8.8824e-07,5.2198e-07,0.3992,0.0204,3.9112e-06,2.2206e-07,1.305e-07,1,0.3485,0.0467,0.0022,0.0015,0.8851,0.1257,0.0106,0.0048,0.0045,0.4926,0.7788,0.0442,0.045,0.0311,0.4765,0.1775,0.0735,0.0484,0.0348
"P06396",32.7612913044102,32.6198188784574,32.6307071946001,32.767224260164,32.996648058324,32.7088238845161,33.1738495196266,33.2105987057738,33.0332160193549,33.27586447724,33.2619252862821,33.1901346032141,33.5179392644381,33.3303122612624,33.369840625449,33.6734568420594,33.5527046825988,33.7945932795611,0.1536,0.4686,0.572,0.7354,1.003,0.3666,6e-04,1e-04,2.8827e-06,5.7178e-08,0.1352,1e-04,0,7.2067e-07,1.4295e-08,1,0.0089,0.0904,0.0063,0.0048,0.5479,0.1137,0.0797,0.0415,0.0199,0.1222,0.9937,0.1713,0.0269,0.0195,0.257,0.0077,0.0043,0.002,0.0011
"Q9BUF5",32.3515287471721,32.3646323344462,32.2703049518981,32.5155915095817,32.727202413831,32.4209148100433,32.4750837854763,32.4702425224068,32.5504128710908,32.9027528417288,32.7493516910987,32.6628876003492,33.3567844726236,33.3827796811565,33.3956037215141,33.5977925721274,33.5527046825988,33.6088477606364,0.2257,0.1698,0.4428,1.0496,1.2576,0.1155,0.0616,2e-04,1.1503e-08,8.3683e-10,0.0289,0.0287,0,2.8757e-09,2.0921e-10,1,0.9165,0.707,0.0063,0.0048,0.381,0.4775,0.1503,0.0141,0.009,0.1484,0.0205,0.6281,0.0144,0.0086,0.2072,0.0175,0.0157,0.0011,3e-04
"Q00610",33.9063416372135,33.8608269779611,33.8042434495948,33.9152747619835,33.9932772739848,33.932976763717,33.8328126017916,33.8700455079905,33.8883077143833,33.8515491643731,33.8422112997938,33.7945932795611,33.5866520145222,33.5866520145222,33.6734568420594,33.5527046825988,33.5754247590989,33.541209043761,0.09,0.0066,-0.0277,-0.2416,-0.3007,0.1799,0.6745,0.7019,4e-04,0,0.1176,0.3372,0.1755,1e-04,9.5618e-06,1,1,1,1,0.0015,0.6438,0.7193,0.7152,0.4952,0.4589,0.045,0.2206,0.8381,0.0144,0.0086,0.1761,0.3015,0.1716,0.0057,0.0038
"P50454",33.3168917455,33.3033452136621,33.2120493796426,33.3956037215141,33.5641094458711,33.4209148100433,33.1974765785553,33.2478501010704,33.1901346032141,33.27586447724,33.1901346032141,33.1558717786976,33.3956037215141,33.1960111695508,33.289670276765,33.5754247590989,33.4823153547074,33.5977925721274,0.1828,-0.0656,-0.0701,0.0163,0.2744,0.1494,0.0993,0.21,0.8532,0.0013,0.0373,0.1615,0.105,0.2133,3e-04,0.74,1,1,1,0.3388,0.4437,0.5796,0.6518,0.5865,0.2533,0.1005,0.0248,0.0537,0.9599,0.0086,0.1539,0.0938,0.0996,0.2213,0.0036
"P49327",32.3620211209897,32.3853536248203,32.3033452136621,32.2105987057738,32.2421813509837,32.2076929745984,31.9045483553905,31.8718821664701,31.9780105173315,32.1783091678173,32.1452803674298,32.1901346032141,33.0249861337121,32.9848156952366,33.0784554047401,33.5641094458711,33.541209043761,33.5527046825988,-0.1301,-0.4321,-0.179,0.6792,1.2024,0.0769,4.2213e-06,0.0051,7.2872e-09,5.0045e-12,0.0385,1.0553e-06,0.0013,1.8218e-09,1.2511e-12,0.283,0.0153,0.1248,0.0063,0.0048,0.536,0.0972,0.4589,0.0502,0.0109,0.0244,0.0205,0.0386,0.0144,0.0086,0.1081,0.0037,0.0104,7e-04,6e-04
"P04406",33.2336362418507,33.2478501010704,33.3033452136621,33.7149761114977,33.7553338491138,33.7251718786036,33.6522403561497,33.6628876003492,33.7453497605412,33.5527046825988,33.3956037215141,33.4702425224068,33.5641094458711,33.6415139495567,33.5977925721274,33.4823153547074,33.6734568420594,33.4334057542265,0.4702,0.4252,0.2112,0.3395,0.2681,3e-04,1e-04,0.0129,3e-04,0.0013,1e-04,0,0.0032,1e-04,3e-04,0.0066,0.0024,0.4097,0.0356,0.3388,0.0617,0.1365,0.4038,0.2039,0.2702,0.0313,0.054,0.2205,0.0501,0.4216,0.0479,0.0036,0.0245,0.0015,0.0206
"E9PAV3",31.3356457055654,31.5754247590989,31.4334057542265,31.1543634721923,31.3462538051314,31.1723599014861,30.6372009566856,30.6543761004937,30.5202832049064,32.7190630690209,32.6501014453934,32.4580678084607,33.6088477606364,33.4580678084607,33.3436090838758,33.5179392644381,33.4457894786823,33.5866520145222,-0.2238,-0.8442,1.1609,2.022,2.0686,0.0976,3.9766e-06,5.0815e-08,4.3621e-11,2.0124e-11,0.0589,9.9414e-07,1.2704e-08,1.0905e-11,5.0309e-12,1,0.0454,0.0153,0.0063,0.0048,0.3894,0.007,0.0079,0.002,0.0019,0.0244,0.0205,0.047,0.0144,0.0086,0.1735,0.0052,0.0026,6e-04,5e-04
"Q01082",33.27586447724,33.1989405005895,33.1901346032141,33.3033452136621,33.3436090838758,33.27586447724,33.3956037215141,33.4580678084607,33.3827796811565,33.5527046825988,33.5061620966618,33.4334057542265,33.5527046825988,33.5061620966618,33.4702425224068,33.4580678084607,33.4580678084607,33.5641094458711,0.086,0.1905,0.2758,0.2881,0.2718,0.3889,0.0111,4e-04,2e-04,2e-04,0.1571,0.0028,1e-04,1e-04,1e-04,1,1,0.4097,1,1,0.6484,0.4332,0.3075,0.2381,0.2538,0.1296,0.6319,0.2746,0.0748,0.0311,0.1693,0.0116,0.0078,0.003,0.0035
"P30041",32.0479125305616,32.0543965641318,32.1300136107765,32.2393386012149,32.1021196046409,32.3567844726236,32.1633897479816,32.1812746262939,32.1901346032141,32.2307765877115,32.372437736935,32.5272922634258,33.0348563777362,33.1284780118653,33.2478501010704,33.5296210694858,33.4942879963735,33.4209148100433,0.1553,0.1008,0.2994,1.0596,1.4042,0.2452,0.0993,0.0067,2.4414e-08,5.4481e-10,0.1158,0.1227,0.0017,6.1036e-09,1.362e-10,1,1,0.1248,0.0063,0.0048,0.619,0.6047,0.3227,0.0139,0.0066,0.0817,0.0248,0.2637,0.0144,0.0086,0.2305,0.0404,0.0409,0.0023,2e-04
"P00558",33.1842340017744,33.1238613837949,33.0624608391308,33.4942879963735,33.6307071946001,33.369840625449,33.5977925721274,33.6943658318224,33.5866520145222,33.5641094458711,33.5061620966618,33.27586447724,33.4823153547074,33.289670276765,33.3033452136621,33.4580678084607,33.4580678084607,33.5179392644381,0.3748,0.5028,0.3252,0.2349,0.3545,0.0156,3e-04,0.0048,0.0253,0.0013,0.0039,1e-04,0.0012,0.0063,3e-04,0.74,0.4071,0.4097,1,1,0.143,0.0853,0.2697,0.2997,0.1925,0.3108,0.0618,0.7434,0.9927,0.0195,0.1134,0.0036,0.036,0.0241,0.0025
"Q6ZMU5",30.8682065083267,30.9045483553905,30.8608269779611,31.29789078357,31.2924156535038,31.3195858546693,31.7453497605412,31.7047077760439,31.7809736702719,32.2563116798186,32.2018638957962,32.1330799138243,32.9294536971533,33.008384166375,33.0249861337121,33.3956037215141,33.4942879963735,33.3956037215141,0.4254,0.8658,1.3192,2.1097,2.5506,1e-04,6.2456e-09,1.5797e-11,6.2956e-14,5.3268e-15,0,1.5614e-09,3.9492e-12,1.5739e-14,1.3317e-15,0.1656,0.0358,0.0228,0.0063,0.0048,0.0882,0.011,0.0045,0.0017,9e-04,0.0244,0.0205,0.0537,0.0144,0.0086,0.0158,0.0013,0.0019,4e-04,3e-04
"P58876",33.3436090838758,33.03976629186,33.2478501010704,33.3168917455,33.4942879963735,33.2619252862821,33.9932772739848,33.9504641904458,33.7848781247278,33.8973528539863,33.8700455079905,33.4209148100433,33.7251718786036,33.3168917455,33.1930758785262,33.4580678084607,33.2047813791785,33.5754247590989,0.1473,0.6991,0.519,0.2013,0.2023,0.8577,0.0024,0.0115,0.2767,0.1991,0.2859,6e-04,0.0029,0.0692,0.0498,1,0.0024,0.0496,0.364,1,0.5896,0.0342,0.1562,0.4209,0.3605,0.4919,0.0482,0.2819,0.891,0.9384,0.2836,0.0098,0.039,0.1146,0.0616
"P11142",33.8042434495948,33.7047077760439,33.7553338491138,33.7149761114977,33.8700455079905,33.6415139495567,33.4702425224068,33.4457894786823,33.27586447724,33.6522403561497,33.5754247590989,33.3033452136621,33.6088477606364,33.4083147732636,33.3567844726236,33.3956037215141,33.369840625449,33.4823153547074,-0.0126,-0.3575,-0.2444,-0.2968,-0.3388,0.6968,0.0069,0.0473,0.0143,0.0033,0.4672,0.0023,0.0118,0.0036,0.0011,1,0.0024,0.4097,0.0356,0.0015,0.8065,0.1515,0.3845,0.4297,0.4048,0.1742,0.0697,0.4191,0.3587,0.0763,0.4767,0.019,0.0719,0.0259,0.0021
"P18206",33.4457894786823,33.4209148100433,33.4083147732636,33.4334057542265,33.5296210694858,33.3436090838758,33.4580678084607,33.4823153547074,33.3827796811565,33.5527046825988,33.4823153547074,33.3436090838758,33.5527046825988,33.3956037215141,33.3436090838758,33.4334057542265,33.3033452136621,33.4942879963735,0.0105,0.016,0.0345,0.0056,-0.0147,1,0.9658,0.7825,0.9571,0.6774,0.4656,0.3219,0.1956,0.2422,0.1693,1,1,0.4097,1,1,0.8024,0.7294,0.6715,0.6024,0.5873,0.9845,0.3793,0.9393,0.7178,0.9061,0.4748,0.2487,0.212,0.2453,0.178
"Q06830",32.891932578202,32.7190630690209,32.821452739627,32.6943658318224,32.8157390884326,32.8061657617258,33.015047896656,33.0430303091819,32.8901212847552,33.0299296966563,33.00001098535,32.8846737199155,33.27586447724,33.2619252862821,33.0848039080136,33.3956037215141,33.3827796811565,33.4457894786823,-0.0387,0.1719,0.1607,0.3967,0.5972,0.2619,0.083,0.0729,2e-04,1.7821e-06,0.3753,0.0208,0.0182,0,4.4553e-07,1,0.7113,0.707,0.0736,0.0618,0.7723,0.4796,0.4689,0.1694,0.077,0.0655,0.4812,0.4537,0.0914,0.0146,0.3943,0.048,0.0465,0.0083,0.0028
"P62805",33.3827796811565,33.2336362418507,33.2478501010704,33.5527046825988,33.7352960958773,33.5977925721274,33.879205507276,33.932976763717,33.8608269779611,33.9848156952366,33.8973528539863,33.5179392644381,33.5977925721274,33.5061620966618,33.5641094458711,33.3567844726236,33.3436090838758,33.4823153547074,0.3405,0.6029,0.5119,0.2679,0.1061,0.0602,2e-04,5e-04,0.0278,0.2725,0.015,0,1e-04,0.007,0.0681,0.1392,0.0024,0.0496,0.364,1,0.1733,0.0472,0.137,0.2589,0.434,0.4967,0.0421,0.2205,0.7616,0.1739,0.0898,0.0063,0.0394,0.0117,0.0502
"Q9NQC3",31.5844135423262,31.6415139495567,31.6628876003492,31.2250402181623,31.1052457056276,30.8828532842911,31.015047896656,31.2703049518981,31.1543634721923,31.9469836217109,31.9574002376562,32.0479125305616,33.1842340017744,32.7848781247278,32.767224260164,33.2076929745984,33.4702425224068,33.4702425224068,-0.5586,-0.483,0.3545,1.2825,1.7531,0.0101,0.0047,0.0207,1.7797e-07,2.9305e-09,0.0025,0.0012,0.0052,4.4493e-08,7.3261e-10,0.1086,0.0358,0.0279,0.0097,0.0048,0.0259,0.0775,0.2239,0.0079,0.0034,0.0244,0.0205,0.3736,0.0144,0.0086,0.1169,0.0194,0.0045,0.0091,0.0018
"P62937",33.5527046825988,33.3436090838758,33.27586447724,33.5866520145222,33.8422112997938,33.5061620966618,33.7251718786036,33.8700455079905,33.6734568420594,33.6839492158771,33.5296210694858,33.289670276765,33.5296210694858,33.369840625449,33.27586447724,33.4334057542265,33.289670276765,33.3956037215141,0.2543,0.3655,0.1104,0.001,-0.0178,0.2784,0.0096,0.4775,0.8354,0.6976,0.0806,0.0058,0.1194,0.2523,0.1744,0.1392,0.0024,0.4097,1,1,0.3869,0.2203,0.5928,0.6265,0.6036,0.3395,0.1069,0.9586,0.5541,0.498,0.211,0.0271,0.1739,0.2563,0.1852
"P25705",32.7652493179789,32.7984610970008,32.7691965024956,32.8365794317145,32.813829498424,32.8496864203559,33.0640682989527,33.0592405363632,33.1901346032141,33.1960111695508,33.1768241496307,33.289670276765,33.2478501010704,33.27586447724,33.3168917455,33.3956037215141,33.4457894786823,33.27586447724,0.0557,0.3268,0.4432,0.5026,0.5948,0.1252,3e-04,9.932e-06,1.7083e-06,1.6539e-07,0.2789,1e-04,2.483e-06,4.2708e-07,4.1349e-08,0.2176,0.0887,1,0.0063,0.0048,0.72,0.2392,0.1453,0.1039,0.0797,0.0313,0.9043,0.1076,0.0144,0.0146,0.1081,0.0175,0.0073,0.0011,0.0039
"P26038",33.7251718786036,33.7149761114977,33.6943658318224,33.8328126017916,33.7652493179789,33.7352960958773,33.7453497605412,33.7047077760439,33.7251718786036,33.5866520145222,33.5977925721274,33.5527046825988,33.3168917455,33.4209148100433,33.3956037215141,33.3827796811565,33.369840625449,33.3436090838758,0.0663,0.0136,-0.1325,-0.3337,-0.3461,0.2927,0.1166,0.0263,0,6.3218e-06,0.1892,0.3049,0.0066,3.5015e-06,1.5804e-06,1,1,1,0.0022,0.0015,0.6948,0.721,0.5317,0.3743,0.3976,0.0732,0.0292,0.0442,0.0232,0.0086,0.2185,0.178,0.0058,0.0064,3e-04
"P06576",32.9188325813967,32.7711660523454,32.7352960958773,32.7453497605412,32.9898985955298,32.7292300951779,33.2478501010704,33.2047813791785,33.1663860004415,33.4334057542265,33.3033452136621,33.0736756266267,33.4083147732636,33.2192809488736,33.206237911398,33.3303122612624,33.2336362418507,33.4083147732636,0.0131,0.3979,0.4617,0.4695,0.5157,0.5934,0.0052,0.001,7e-04,2e-04,0.4667,0.0013,3e-04,2e-04,1e-04,1,0.7113,0.707,0.0736,0.0618,0.8246,0.1618,0.1538,0.1248,0.1061,0.1484,0.2591,0.2717,0.0767,0.0359,0.4838,0.015,0.0258,0.0067,0.0025
"P04083",33.8515491643731,33.9152747619835,33.9152747619835,33.7945932795611,33.7453497605412,33.8973528539863,33.7750971039353,33.7750971039353,33.7652493179789,33.541209043761,33.5179392644381,33.6522403561497,33.3033452136621,33.3567844726236,33.3956037215141,33.3168917455,33.3956037215141,33.2619252862821,-0.0816,-0.1222,-0.3236,-0.5421,-0.5692,0.3845,0.0745,2e-04,8.3817e-07,3.0154e-07,0.1922,0.0337,1e-04,2.0954e-07,7.5385e-08,1,1,0.4097,0.0022,0.0015,0.6864,0.4683,0.2717,0.1653,0.1831,0.1114,0.0248,0.1476,0.0144,0.0146,0.2501,0.0265,0.01,0.001,0.0013
"P22626",33.289670276765,33.3033452136621,33.1916059904308,33.27586447724,33.4823153547074,33.3168917455,33.7149761114977,33.6734568420594,33.6198188784574,33.5527046825988,33.4702425224068,33.369840625449,33.3956037215141,33.3168917455,33.2619252862821,33.2619252862821,33.3033452136621,33.2619252862821,0.0968,0.4079,0.2027,0.0633,0.0142,0.7468,2e-04,0.0198,0.4316,0.4362,0.1867,0,0.005,0.1079,0.1673,1,0.0024,0.4097,1,1,0.6567,0.1489,0.4107,0.5202,0.5506,0.7797,0.0345,0.5631,0.6176,0.1454,0.2836,0.0048,0.0312,0.1003,0.1629
"P02751",33.0216809889885,33.1498290681215,33.3303122612624,33.6943658318224,33.6522403561497,33.7149761114977,32.4234216656538,32.4750837854763,32.3594051727827,32.0576276853949,32.0315737937469,31.9745958529187,32.3141925958991,32.1633897479816,32.1391930375509,33.3033452136621,33.2336362418507,33.289670276765,0.5199,-0.748,-1.146,-0.9617,0.1083,4e-04,1.3439e-06,4.4506e-09,2.009e-08,0.0769,1e-04,3.3598e-07,1.1126e-09,5.0224e-09,0.0385,0.0066,0.0089,0.0123,0.0063,1,0.0648,0.0139,0.004,0.0254,0.4519,0.0313,0.0292,0.0323,0.0144,0.0235,0.1135,0.0126,0.0076,0.0034,0.0878
"Q702N8",30.9882062844374,30.9045483553905,30.8534095063987,31.372437736935,31.3827796811565,31.2924156535038,31.3776179760407,31.4334057542265,31.372437736935,32.7493516910987,32.6755614303843,32.4823153547074,33.3956037215141,33.2192809488736,33.1901346032141,33.2336362418507,33.206237911398,33.3567844726236,0.4338,0.4791,1.7204,2.353,2.3502,0.0028,2e-04,8.676e-11,1.8006e-12,6.0297e-13,7e-04,0,2.169e-11,4.5016e-13,1.5074e-13,0.1656,0.0454,0.0153,0.0063,0.0048,0.084,0.0991,0.0017,0.001,0.0012,0.0244,0.0205,0.0386,0.0144,0.012,0.0621,0.0061,0.0025,6e-04,2e-04
"P12814",33.3567844726236,33.2478501010704,33.27586447724,33.1528535871347,33.0640682989527,33.1738495196266,33.164888652055,33.1223192189865,33.1901346032141,33.0282837238127,33.0348563777362,32.9848156952366,32.9417469733447,33.0816331484056,33.0800451515025,33.2192809488736,33.2336362418507,33.2478501010704,-0.1632,-0.1344,-0.2775,-0.259,-0.0599,0.108,0.075,5e-04,7e-04,0.1566,0.027,0.0188,1e-04,2e-04,0.0649,1,1,1,1,1,0.5031,0.452,0.3117,0.48,0.6455,0.5054,0.4761,0.0564,0.1868,0.0522,0.1161,0.0309,0.0092,0.0111,0.0558
"P30101",32.7533425512947,32.8552674526192,32.727202413831,32.9206082062866,33.1192299350633,32.9522013309819,32.996648058324,32.9780105173315,32.9063416372135,32.9949636506127,32.9347350759893,32.7352960958773,33.1916059904308,33.0768639042578,33.0282837238127,33.1768241496307,33.1361397135734,33.2192809488736,0.2187,0.1817,0.1097,0.3203,0.3988,0.1327,0.0898,0.26,0.0019,2e-04,0.0332,0.0224,0.065,5e-04,1e-04,0.2176,0.0887,0.707,0.0736,0.0048,0.3858,0.4536,0.5643,0.22,0.1631,0.765,0.4354,0.3774,0.0841,0.017,0.1504,0.0243,0.124,0.0079,0.0023
"P09493",31.5618356943509,31.7292300951779,32.0672778554286,32.0511581900653,32.1021196046409,31.943494635631,31.4032437837162,31.3981549070434,31.286919665749,32.1633897479816,31.9504641904458,31.8422112997938,32.9382452846332,32.7332769282406,32.7413366980346,33.3033452136621,32.932976763717,33.2478501010704,0.2461,-0.4233,0.1992,1.0182,1.3753,0.4516,0.0188,0.2221,5.4481e-06,1.2602e-07,0.1129,0.0047,0.0555,1.362e-06,3.1506e-08,0.4062,0.0358,0.1895,0.0097,0.0048,0.5736,0.1558,0.536,0.0194,0.0079,0.8209,0.0345,0.6388,0.0302,0.012,0.2681,0.0618,0.1328,0.0096,0.0024
"O60662",29.7533425512947,29.612806981102,29.4512048221674,30.3515287471721,30.0989867151559,30.1603872598201,31.0348563777362,31.1300136107765,31.2018638957962,32.4108435995744,32.3646323344462,32.4133680009899,33.1052457056276,33.0511581900653,33.0249861337121,33.1916059904308,33.1176828088658,33.1618892849853,0.5978,1.5165,2.7905,3.4547,3.5513,3e-04,1.9074e-09,7.2698e-13,5.6612e-14,2.1788e-14,1e-04,4.7685e-10,1.8175e-13,1.4153e-14,5.447e-15,0.3066,0.0655,0.0153,0.0063,0.0048,0.0408,0.001,3e-04,2e-04,2e-04,0.0313,0.4847,0.0323,0.0232,0.0086,0.0862,0.0036,0.0034,0.0013,8e-04
"P07195",33.1857114161799,32.9206082062866,32.7593082181311,33.0511581900653,33.3567844726236,32.9522013309819,33.0446595527666,33.065673969726,33.0720788416924,33.0989867151559,33.0381315097691,32.8718821664701,33.1407172796799,32.9763041953811,32.9045483553905,33.1543634721923,33.0462869585126,33.1361397135734,0.1648,0.1056,0.0478,0.052,0.1571,0.7584,0.7014,0.8083,0.7203,0.1822,0.1896,0.1753,0.2021,0.1801,0.0455,1,0.7113,1,0.6417,0.5872,0.6734,0.6493,0.7008,0.5713,0.4,0.6488,0.9918,0.7714,0.9369,0.3004,0.332,0.1997,0.2413,0.2036,0.0842
"P62328",32.9574002376562,32.8755484836679,32.9487249557073,33.8700455079905,34.2619252862821,34.0592405363632,33.8328126017916,33.6943658318224,33.6307071946001,33.6734568420594,33.4083147732636,33.2163926695488,33.5061620966618,33.3303122612624,33.1114776593391,33.0800451515025,33.3168917455,32.9170547684288,1.1365,0.7921,0.5055,0.3888,0.1774,1e-04,3e-04,0.0065,0.0229,0.2039,0,1e-04,0.0016,0.0057,0.051,0.0066,0.0024,0.4097,1,0.5872,8e-04,0.0165,0.1291,0.188,0.387,0.0681,0.0325,0.6275,0.919,0.2223,0.0862,0.0062,0.0391,0.0338,0.0695
"O75923",31.9539363823526,31.925922006183,31.8534095063987,32.1783091678173,32.1989405005895,32.151342120217,32.3462538051314,32.3930480166103,32.3827796811565,32.7352960958773,32.6922885167898,32.6586381273479,33.0266358709312,32.9522013309819,32.9882062844374,33.0784554047401,33.0430303091819,33.1573785099477,0.2651,0.4629,0.7843,1.0779,1.1819,0.0041,3.3882e-06,3.7911e-09,4.7395e-11,9.8868e-12,0.001,8.4706e-07,9.4778e-10,1.1849e-11,2.4717e-12,0.0737,0.0153,0.0153,0.0063,0.0048,0.2537,0.1081,0.029,0.0129,0.0114,0.036,0.0345,0.0615,0.0144,0.012,0.0862,0.0048,0.0014,5e-04,3e-04
"P14625",32.8883077143833,32.8023185726703,32.7047077760439,32.8682065083267,33.1269407767269,32.9117081469633,32.7887720408323,32.8534095063987,32.69851151008,32.8718821664701,32.7413366980346,32.5202832049064,33.13766718332,32.8552674526192,32.8403364521734,32.9949636506127,33.0543965641318,33.1284780118653,0.1705,-0.0182,-0.0873,0.146,0.2608,0.6178,0.4543,0.4475,0.2395,0.0275,0.1544,0.3305,0.1358,0.0599,0.0069,1,1,0.707,0.6417,0.0618,0.5201,0.6864,0.6502,0.4323,0.267,0.404,0.1136,0.2238,0.3785,0.0235,0.2313,0.2875,0.1792,0.0953,0.0094
"P62258",33.0266358709312,32.8195507023826,32.8534095063987,32.9382452846332,33.1099221928371,32.8515491643731,32.9728854851536,33.0282837238127,32.9643030979109,33.065673969726,32.9831174077646,32.8718821664701,33.0576276853949,32.9045483553905,32.9504641904458,33.041399223603,33.0117198789383,33.065673969726,0.0667,0.0886,0.0737,0.071,0.1397,1,0.5436,0.4793,0.4456,0.0919,0.3037,0.1359,0.1198,0.1114,0.023,1,1,1,0.6417,0.0618,0.7219,0.6414,0.6212,0.5136,0.3921,0.983,0.8803,0.8382,0.7246,0.1521,0.3798,0.1395,0.1616,0.1326,0.0447
"P61978",33.1945442705521,33.1886617138152,33.13766718332,33.2619252862821,33.289670276765,33.1238613837949,33.6088477606364,33.4209148100433,33.4823153547074,33.369840625449,33.4209148100433,33.217837532004,33.3436090838758,33.2033233749706,33.1005540103029,33.0527782857335,32.959129051573,33.0495362730413,0.0515,0.3304,0.1626,0.0422,-0.1531,1,0.0035,0.0949,0.6578,0.036,0.3476,9e-04,0.0237,0.1644,0.017,1,0.4071,1,1,1,0.7226,0.2374,0.4603,0.5488,0.6616,0.7076,0.0345,0.4,0.9403,0.012,0.3423,0.0217,0.0593,0.176,0.0095
"P07737",33.1161340217703,33.036494873132,33.0067134133905,33.0381315097691,33.0479125305616,32.9027528417288,33.2478501010704,33.2619252862821,33.2192809488736,33.1543634721923,33.1618892849853,32.9711730872779,33.036494873132,32.9728854851536,32.7632716685385,32.891932578202,32.9814171187747,33.1130314505942,-0.0568,0.1899,0.0427,-0.1289,-0.0577,1,0.0747,0.7365,0.1857,0.425,0.3424,0.0249,0.1841,0.0464,0.1062,1,1,1,0.6417,1,0.7127,0.4328,0.6651,0.6833,0.6524,0.3593,0.0325,0.9341,0.2884,0.9736,0.3263,0.0211,0.2005,0.09,0.1142
"P78559",30.8534095063987,30.7848781247279,30.8080855158892,31.015047896656,30.9949636506127,30.9117081469633,31.8309254922473,31.8195507023826,31.7533425512947,32.2421813509837,32.2250402181623,32.0989867151559,32.7453497605412,32.6154404379468,32.6066434897096,32.9763041953811,32.9188325813967,33.0688799600251,0.1584,0.9858,1.3733,1.8404,2.1725,0.1079,1.1118e-08,8.676e-11,1.9693e-12,1.3878e-13,0.0482,2.7795e-09,2.169e-11,4.9233e-13,3.4696e-14,0.5152,0.0285,0.0228,0.0097,0.0048,0.4955,0.0058,0.0039,0.0028,0.0017,0.036,0.0858,0.0386,0.0144,0.0086,0.1078,8e-04,0.0019,7e-04,4e-04
"Q3ZCM7",32.4482535186338,32.8328126017916,32.7965284844668,33.0688799600251,33.3033452136621,32.9831174077646,33.1857114161799,33.0895470192696,33.0879677141958,33.0688799600251,33.1573785099477,32.8755484836679,33.036494873132,32.7211022142945,32.8991550966202,32.9643030979109,32.8663651615026,33.1005540103029,0.4259,0.4285,0.3414,0.1931,0.2845,0.0521,0.0116,0.0275,0.1472,0.0352,0.013,0.0029,0.0069,0.044,0.0088,1,0.7113,0.707,0.0736,0.0618,0.1671,0.1722,0.2977,0.4166,0.2859,0.2747,0.2435,0.6419,0.9927,0.3693,0.1573,0.0469,0.0537,0.0967,0.0394
"P45379",24.1174351146355,23.4169953964944,22.4725877224577,27.0608515862691,26.8263863326321,26.4582634148661,29.3066080006711,28.9704875586165,29.1771212755799,31.1603872598201,31.372437736935,30.7533425512947,32.541209043761,32.4184035908872,32.3409595054619,32.9009550906665,32.7493516910987,32.9487249557073,3.4462,5.8157,7.7597,9.0979,9.5307,4.9006e-06,1.7477e-09,1.5797e-11,1.8764e-12,4.796e-13,1.2251e-06,4.3691e-10,3.9492e-12,4.6909e-13,1.199e-13,0.0737,0.0218,0.0228,0.0147,0.0079,3.4477e-06,1.976e-06,4.2892e-06,8.2022e-06,0,0.3771,0.0512,0.0323,0.0144,0.0086,0.0934,0.0104,0.0046,0.004,0.0023
"P78527",32.9831174077646,32.9417469733447,32.9188325813967,33.015047896656,33.0216809889885,32.9382452846332,33.3168917455,33.3567844726236,33.3827796811565,33.3168917455,33.27586447724,33.2192809488736,33.0784554047401,33.0332160193549,33.0527782857335,32.8328126017916,32.8571230091977,32.8883077143833,0.0438,0.4043,0.3228,0.1069,-0.0885,0.1799,7.8704e-06,0,0.0601,0.0344,0.2897,1.9676e-06,8.7235e-06,0.015,0.0205,1,1,1,1,0.0618,0.736,0.1489,0.2448,0.4577,0.686,0.045,0.0205,0.0386,0.7754,0.0086,0.2794,0.0021,0.0045,0.0108,0.0109
"P62158",32.6328750312828,33.1223192189865,33.289670276765,32.9294536971533,32.7149761114977,33.0576276853949,33.0266358709312,32.9469836217109,32.7965284844668,32.7453497605412,32.9608557962924,32.8100027188835,32.9865119858975,32.7473521134524,32.531946122432,32.8440837141266,32.7129282828488,32.9625804767619,-0.1143,-0.0916,-0.1762,-0.2597,-0.1751,1,0.894,0.3898,0.1619,0.2565,0.3343,0.2415,0.0974,0.0405,0.0641,1,0.7113,1,0.6417,0.5872,0.8317,0.7036,0.6255,0.6062,0.711,0.9163,0.894,0.6388,0.5465,0.8895,0.4152,0.2587,0.1707,0.1126,0.1129
"P46940",33.3567844726236,33.3567844726236,33.3168917455,33.4334057542265,33.4457894786823,33.3436090838758,33.6522403561497,33.6307071946001,33.6522403561497,33.5296210694858,33.5296210694858,33.4334057542265,33.1528535871347,33.0688799600251,33.1083650474718,32.8403364521734,32.7809736702719,32.8682065083267,0.0641,0.3016,0.1541,-0.2335,-0.5136,0.4022,2e-04,0.0177,8e-04,1.8939e-07,0.2174,1e-04,0.0044,2e-04,4.7348e-08,1,0.0024,0.0496,1,0.0048,0.6899,0.259,0.472,0.4982,0.2154,0.1005,0.0248,0.047,0.0144,0.0086,0.2375,0.0027,0.0244,0.0046,9e-04
"P63316",NA,23.7285815471603,21.8307441998047,26.6594890238874,26.1194154787637,25.9976577597819,28.0863866783763,28.1699733086493,28.4314144564074,30.6543761004937,30.6543761004937,30.7047077760439,32.1483144275195,32.2534966642115,32.3462538051314,32.7612913044102,32.9099215274893,32.6818568369158,3.4792,5.4496,7.8915,9.4697,10.0047,1e-04,7.8516e-08,5.2291e-10,3.1152e-11,9.9592e-12,0,1.9629e-08,1.3073e-10,7.7881e-12,2.4898e-12,0.0447,0.0153,0.0153,0.0097,0.0079,0.0234,0.0085,0.0096,0.0092,0.0077,0.2176,0.0588,0.0386,0.019,0.0086,0.2293,0.0662,0.0469,0.0314,0.0211
"P07900",33.036494873132,33.1945442705521,33.0752706461821,33.03976629186,33.0688799600251,32.9814171187747,33.03976629186,32.9728854851536,32.9469836217109,33.023334507841,33.0033660916084,32.9063416372135,32.9382452846332,32.7809736702719,32.8176461541973,32.8440837141266,32.7352960958773,32.767224260164,-0.0721,-0.1156,-0.1244,-0.2565,-0.3199,0.8579,0.2012,0.1115,0.0021,2e-04,0.2397,0.0503,0.0279,5e-04,1e-04,1,1,1,0.0736,0.0048,0.6906,0.4937,0.5615,0.4832,0.4404,0.429,0.9543,0.7221,0.2572,0.1047,0.2851,0.072,0.0608,0.014,0.0048
"P27816",32.4774983384096,32.4507133573216,32.4209148100433,32.531946122432,32.5458182970136,32.4184035908872,32.4774983384096,32.5365850172355,32.4334057542265,32.6628876003492,32.5663796194959,32.3567844726236,32.8233522725425,32.6263617243241,32.5572774123886,32.7352960958773,32.639359064853,32.8080855158892,0.049,0.0328,0.079,0.2193,0.2779,0.7353,0.3085,0.4884,0.0338,0.0066,0.3677,0.2841,0.1221,0.0085,0.0016,1,1,1,1,1,0.7219,0.723,0.6085,0.3219,0.2505,0.2301,0.0771,0.7108,0.1109,0.0195,0.3154,0.1748,0.1716,0.0458,0.0098
"P22392",32.8645214615189,33.0299296966563,32.9556693495771,32.8973528539863,33.0624608391308,32.7493516910987,32.873716489719,32.9556693495771,32.8003911240992,32.8478212681364,32.7473521134524,32.5458182970136,32.7809736702719,32.6522403561497,32.5776772108303,32.6501014453934,32.6415139495567,32.7612913044102,-0.047,-0.0734,-0.2364,-0.2797,-0.2657,1,0.8002,0.0476,0.0126,0.0151,0.387,0.2001,0.0119,0.0042,0.0038,1,1,0.0904,0.0063,0.0618,0.7882,0.5761,0.3972,0.4548,0.5151,0.6114,0.7826,0.2462,0.1895,0.2068,0.4256,0.1481,0.0564,0.0159,0.0073
"Q9UKX2",21.8689129614744,22.0019578972156,22.4118336913786,21.8801694168175,22.2678519571886,23.032546217049,22.5498072249196,NA,21.7674926435785,28.2624854474388,28.0505096420477,28.0914399061026,32.8290359110461,32.0640682989527,32.69851151008,33.0249861337121,32.4605109843891,32.3750301815516,0.2993,0.0644,6.0406,10.4363,10.5259,1,0.6988,8.5693e-10,1.8764e-12,6.0297e-13,0.2784,0.3271,2.1423e-10,4.6909e-13,1.5074e-13,1,0.3485,0.0123,0.0063,0.0048,0.8166,0.8248,0,3.9414e-06,5.3905e-06,0.5542,0.4659,0.0323,0.0144,0.012,0.3611,0.3112,0.0018,4e-04,2e-04
"Q14697",32.7067672982222,32.6818568369158,32.6565086877865,32.9134925566415,32.9452401833828,32.8864918613545,32.7632716685385,32.767224260164,32.8157390884326,32.7593082181311,32.7312549306554,32.7593082181311,32.6458140869903,32.6755614303843,32.7067672982222,32.6285360955585,32.6088477606364,32.6285360955585,0.2334,0.1004,0.0682,-0.0057,-0.0597,0.0036,0.0931,0.1808,0.5998,0.1471,9e-04,0.0233,0.0514,0.2319,0.043,0.0259,0.7113,0.0904,1,1,0.3066,0.6021,0.6211,0.6155,0.6423,0.0244,0.7491,0.1356,0.1999,0.0735,0.059,0.0161,0.0215,0.2203,0.0149
"P27797",32.1052457056276,31.8346972461365,32.4133680009899,32.7251718786036,32.3087790997127,32.8328126017916,32.369840625449,32.2018638957962,32.5549928591941,32.3033452136621,32.3141925958991,32.6220031257192,32.4531690090479,32.7965284844668,32.7211022142945,32.604435845758,32.5085252340303,32.7231384814511,0.5045,0.2578,0.2954,0.5392,0.4943,0.1049,0.3146,0.1564,0.0101,0.0114,0.0262,0.0787,0.0391,0.0025,0.0028,1,0.9165,0.99,0.1003,0.0908,0.5119,0.5055,0.4511,0.1508,0.1539,0.3721,0.9747,0.9326,0.143,0.1605,0.1897,0.1297,0.0992,0.0315,0.0274
"Q01995",32.8384591649327,32.8515491643731,32.9469836217109,32.6964401600603,32.6586381273479,32.6713491790974,32.1361397135734,32.2393386012149,32.1543634721923,31.7848781247279,31.7129282828488,31.5888870189055,31.8003911240992,31.8864918613545,31.8755484836679,32.4942879963735,32.7005798904212,32.604435845758,-0.2035,-0.7024,-1.1834,-1.0249,-0.2792,0.0498,8.271e-07,9.3213e-10,2.817e-09,0.0011,0.0249,2.0677e-07,2.3303e-10,7.0425e-10,3e-04,0.0259,0.0089,0.0123,0.0097,0.5872,0.3785,0.0159,0.0032,0.0167,0.4987,0.0313,0.0345,0.0323,0.0144,0.0258,0.1081,0.0021,0.0022,5e-04,0.0108
"P26641",32.9643030979109,32.8626754023535,32.8365794317145,32.7848781247278,32.9134925566415,32.7312549306554,32.5933466670962,32.6198188784574,32.5844135423262,32.6881248918483,32.6628876003492,32.639359064853,32.6839492158771,32.6607644284563,32.7005798904212,32.6350396153961,32.5388988830738,32.604435845758,-0.078,-0.2887,-0.2244,-0.2061,-0.2951,0.7442,8e-04,0.0033,0.0045,2e-04,0.1953,2e-04,8e-04,0.0011,0,1,0.0089,0.0123,0.0736,0.5872,0.6734,0.2153,0.3862,0.5379,0.4637,0.3721,0.1107,0.1713,0.921,0.1881,0.2975,0.0175,0.0195,0.0172,0.0036
"P40926",31.8901212847552,31.9294536971533,31.9081326927395,31.8755484836679,31.8608269779611,31.7848781247279,32.4083147732636,32.3383050520159,32.289670276765,32.541209043761,32.6176313192196,32.3981549070434,32.5731687851585,32.4799088570003,32.4726651846737,32.6328750312828,32.5014241776551,32.6307071946001,-0.0688,0.4362,0.6098,0.5993,0.6791,0.1628,1e-04,1.2197e-06,9.1409e-07,1.3818e-07,0.257,0,3.0493e-07,2.2852e-07,3.4545e-08,1,0.0218,0.0153,0.0097,0.0079,0.6788,0.1252,0.0655,0.0705,0.0555,0.0407,0.3297,0.0564,0.019,0.0276,0.2072,0.008,0.0126,0.0026,0.0025
"P00352",33.1021196046409,33.0848039080136,33.0282837238127,33.4083147732636,33.4823153547074,33.3033452136621,33.5296210694858,33.5527046825988,33.4942879963735,33.3168917455,33.3033452136621,33.1842340017744,32.959129051573,32.7373124414758,32.8023185726703,32.6285360955585,32.5481174131032,32.5731687851585,0.3263,0.4538,0.1964,-0.2388,-0.4885,0.0077,1e-04,0.0221,0.0054,7.3781e-06,0.0019,0,0.0055,0.0014,1.8445e-06,1,1,1,0.0736,0.0048,0.1795,0.1118,0.4119,0.5029,0.2419,0.0313,0.0292,0.0638,0.0302,0.0086,0.0995,0.0021,0.0232,0.0291,5e-04
"P14649",22.6320082874653,23.8670283171295,24.0359052291389,24.9450308291307,24.194602975158,25.2606921656157,27.6250555268235,27.6594890238874,27.6730355557253,30.3930480166103,30.29789078357,30.3195858546693,32.1361397135734,32.0446595527666,32.0768639042578,32.6776629530296,32.5061620966618,32.5108845069042,1.2885,4.1409,6.8252,8.5742,9.0533,0.0168,5.5025e-08,6.8022e-11,2.4139e-12,6.0297e-13,0.0042,1.3756e-08,1.7006e-11,6.0348e-13,1.5074e-13,0.0447,0.0153,0.0153,0.0147,0.0079,0.1343,9.2012e-06,9.9323e-06,0,0,0.8101,0.0917,0.0323,0.0144,0.0086,0.18,0.016,0.0079,0.0042,0.0022
"P13929",24.2534966642115,24.5638367848237,25.2714185722088,26.010519910719,26.2908788862146,26.4361889617277,26.8740830746634,27.9759626886826,27.1889564120168,30.2307765877115,30.2647239196348,30.2534966642115,31.9364912478932,31.7887720408323,31.7005798904212,32.6285360955585,32.5641094458711,32.5014241776551,1.5496,2.6501,5.5534,7.1124,7.8684,0.0011,1.13e-06,1.2114e-10,3.4908e-12,5.8117e-13,4e-04,2.8249e-07,3.0285e-11,8.7269e-13,1.4529e-13,0.2176,0.0887,0.0904,0.0256,0.0079,4e-04,1e-04,0,0,0,0.8887,0.3814,0.0323,0.0144,0.012,0.1134,0.0093,0.0068,0.0025,0.0017
"O75083",33.0989867151559,33.0282837238127,32.9831174077646,33.0133848474334,33.2192809488736,33.0608515862691,32.813829498424,32.9188325813967,32.9643030979109,32.9898985955298,32.9399971913948,32.8100027188835,32.7149761114977,32.5686462264678,32.69851151008,32.5504128710908,32.4966706476845,32.5663796194959,0.061,-0.1378,-0.1235,-0.3761,-0.499,0.2463,0.179,0.1683,3e-04,0,0.3044,0.0448,0.0421,1e-04,3.0593e-06,1,1,1,0.0063,0.0048,0.7184,0.4605,0.5595,0.3123,0.2307,0.0616,0.8535,0.9973,0.0546,0.012,0.3487,0.0516,0.0706,0.0052,0.0011
"P50395",32.7332769282406,32.6922885167898,32.6154404379468,32.7088238845161,32.7887720408323,32.7352960958773,32.4990493704672,32.4774983384096,32.5866520145222,32.5061620966618,32.5132399279023,32.5037950821179,32.4895108561116,32.4482535186338,32.5108845069042,32.5155915095817,32.6022248184426,32.4580678084607,0.064,-0.1593,-0.1726,-0.1975,-0.155,0.1952,0.0335,0.0144,0.0048,0.0139,0.2357,0.0084,0.0036,0.0012,0.0035,1,1,1,1,1,0.6948,0.4195,0.468,0.5511,0.6591,0.0488,0.1297,0.0707,0.0652,0.9047,0.2527,0.0285,0.0297,0.0118,0.0179
"P22314",32.6176313192196,32.6755614303843,32.6263617243241,32.6734568420594,32.6479593588219,32.6220031257192,32.7533425512947,32.6436656204117,32.6776629530296,32.6132462245339,32.6307071946001,32.5977925721274,32.5014241776551,32.5202832049064,32.5296210694858,32.4750837854763,32.4895108561116,32.4942879963735,0.008,0.0517,-0.0259,-0.1227,-0.1536,0.9143,0.496,0.6202,0.0252,0.0048,0.4572,0.1328,0.1743,0.0063,0.0012,1,1,1,1,1,0.8129,0.7029,0.7143,0.6723,0.659,0.2649,0.248,0.3101,0.0269,0.0235,0.4432,0.1233,0.121,0.0096,0.0052
"P06703",32.6922885167898,32.5249596921159,32.8755484836679,32.7312549306554,32.7292300951779,32.5365850172355,32.9223816484778,33.1161340217703,32.8828532842911,32.6860385645998,32.8403364521734,32.455620488042,32.7473521134524,32.327638126964,32.1723599014861,32.5179392644381,32.4847178449227,32.4531690090479,-0.0319,0.2762,-0.0369,-0.2818,-0.2123,1,0.1628,0.9069,0.0902,0.1434,0.4478,0.0417,0.2267,0.0225,0.0359,1,0.0887,1,0.1003,1,0.8313,0.3775,0.7549,0.5477,0.606,0.9845,0.1221,0.8525,0.2995,0.2534,0.4589,0.0624,0.2548,0.0875,0.0476
"Q14764",32.27863622649,32.2619252862821,32.2163926695488,32.4309162022008,32.327638126964,32.3620211209897,32.0446595527666,31.991588923832,32.0768639042578,32.175337601286,32.1930758785262,32.1960111695508,32.3904877762918,32.3646323344462,32.4702425224068,32.4966706476845,32.4678157850123,32.4605109843891,0.1212,-0.2146,-0.0642,0.1561,0.2227,0.181,0.0026,0.1292,0.0108,6e-04,0.0538,7e-04,0.0759,0.0027,2e-04,0.283,1,1,0.0097,0.0079,0.6065,0.3171,0.6584,0.4,0.2964,0.0905,0.0205,0.0323,0.019,0.0086,0.1312,0.0078,0.0408,0.015,0.0018
"P04792",30.1842340017744,30.3303122612624,30.3515287471721,30.6881248918483,30.5933466670962,30.6372009566856,30.8682065083267,31.0479125305616,30.9469836217109,31.4774983384096,31.5754247590989,31.4531690090479,32.0832193992976,32.015047896656,32.0768639042578,32.4083147732636,32.4895108561116,32.522623343361,0.3509,0.6657,1.2133,1.7697,2.1848,0.0037,1.1689e-06,6.0119e-10,3.9503e-12,2.277e-13,9e-04,2.9222e-07,1.503e-10,9.8759e-13,5.6925e-14,0.2176,0.0747,0.0467,0.0147,0.0079,0.1795,0.0359,0.0064,0.0031,0.0017,0.0244,0.0639,0.047,0.0144,0.012,0.0895,0.0046,0.0016,0.0011,3e-04
"P10412",32.0672778554286,32.27863622649,32.4358910176161,32.7691965024956,32.7211022142945,32.3776179760407,32.9694586544667,32.9797148235437,32.9117081469633,33.023334507841,32.8252493077151,32.6479593588219,32.7984610970008,32.4032437837162,32.4209148100433,32.5754247590989,32.2591212134054,32.5272922634258,0.362,0.693,0.5716,0.2803,0.1933,0.2038,0.0013,0.0034,0.0991,0.1831,0.0509,3e-04,9e-04,0.0248,0.0458,0.283,0.0089,0.0904,0.1003,0.7924,0.3371,0.0341,0.1078,0.32,0.381,0.6332,0.0512,0.2545,0.766,0.9283,0.1868,0.0223,0.0199,0.0657,0.0676
"P09651",32.8403364521734,33.0640682989527,33.001689513801,32.9027528417288,32.9660236646514,32.9983305017111,33.0672778554286,33.1036835018573,33.0942745878066,32.8571230091977,32.8534095063987,32.8883077143833,32.6479593588219,32.6458140869903,32.5955713322107,32.3329814480384,32.4750837854763,32.440848737412,-0.013,0.1197,-0.1024,-0.3389,-0.5524,0.9028,0.1684,0.1799,2e-04,7.2307e-07,0.4514,0.0421,0.045,0,1.8077e-07,1,1,1,0.0736,0.0618,0.8166,0.5937,0.6035,0.3821,0.2057,0.2509,0.1009,0.9753,0.1234,0.0086,0.4765,0.1076,0.1124,0.019,0.0032
"P13667",31.9848156952366,31.9223816484778,31.8973528539863,32.0640682989527,32.2221634574067,31.9117081469633,31.9780105173315,31.9677421818777,31.8901212847552,32.1483144275195,32.0672778554286,31.7965284844668,32.5202832049064,32.3303122612624,32.1723599014861,32.4383720071198,32.3114883869707,32.4871163409712,0.1311,0.0104,0.0692,0.4061,0.4775,0.6905,0.2353,0.6531,0.0035,7e-04,0.2269,0.3454,0.1633,9e-04,2e-04,0.3452,0.9945,0.99,0.0147,0.012,0.5902,0.723,0.6357,0.1675,0.121,0.8171,0.0588,0.4055,0.0587,0.0086,0.2861,0.285,0.2004,0.0264,0.0033
"P78371",32.6328750312828,32.5549928591941,32.6198188784574,32.5977925721274,32.5888870189055,32.6586381273479,32.3329814480384,32.3033452136621,32.3436090838758,32.3981549070434,32.3515287471721,32.5037950821179,32.4847178449227,32.5481174131032,32.5342674343421,32.4083147732636,32.4774983384096,32.3195858546693,0.0125,-0.2759,-0.1847,-0.0802,-0.2008,0.3442,0.0011,0.012,0.1896,0.0036,0.4488,3e-04,0.003,0.0565,9e-04,1,1,1,1,0.7924,0.8152,0.2314,0.4603,0.7305,0.6029,0.086,0.0248,0.1713,0.0948,0.8698,0.4353,0.0066,0.0288,0.0314,0.0125
"P50990",32.6650076522236,32.6650076522236,32.6458140869903,32.5776772108303,32.6307071946001,32.5155915095817,32.27586447724,32.2421813509837,32.3087790997127,32.4358910176161,32.4482535186338,32.2534966642115,32.4990493704672,32.3879229844325,32.4433212230916,32.4032437837162,32.3672388302607,32.425924172857,-0.084,-0.383,-0.2794,-0.2152,-0.2598,0.3776,1e-04,9e-04,0.0047,8e-04,0.1888,0,2e-04,0.0012,2e-04,1,0.1246,0.9126,1,1,0.6434,0.1235,0.312,0.5231,0.5149,0.1053,0.0205,0.1461,0.9215,0.6571,0.2087,0.0048,0.0337,0.0138,0.002
"P02511",29.8187891847926,30.0736756266267,30.0736756266267,30.6372009566856,30.5572774123886,30.6285360955585,30.5844135423262,30.6964401600603,30.5572774123886,30.932976763717,30.7848781247279,30.8973528539863,31.7926554753196,31.9045483553905,31.7965284844668,32.425924172857,32.4334057542265,32.3087790997127,0.619,0.624,0.883,1.8425,2.4007,1e-04,0,1.2097e-07,1.3794e-11,4.796e-13,0,2.6714e-06,3.0242e-08,3.4486e-12,1.199e-13,0.2176,0.0887,0.0865,0.0199,0.012,0.0248,0.0467,0.022,0.0028,0.0012,0.0709,0.1025,0.8063,0.0144,0.0086,0.0961,0.0126,0.0064,0.0016,7e-04
"O60664",31.29789078357,31.3195858546693,31.3567844726236,31.9469836217109,31.9188325813967,31.9608557962924,31.9009550906665,31.8119173774802,31.8937416004339,31.8534095063987,31.8973528539863,31.8682065083267,32.1361397135734,32.1361397135734,32.1391930375509,32.3436090838758,32.4007015891538,32.3249590267682,0.6175,0.5441,0.5482,0.8124,1.0317,7.2423e-07,2.4766e-07,7.7948e-08,4.891e-10,1.658e-11,1.8106e-07,6.1915e-08,1.9487e-08,1.2227e-10,4.145e-12,0.0943,0.0285,0.0279,0.0147,0.012,0.0187,0.0656,0.0881,0.0314,0.0173,0.1942,0.1773,0.0838,0.0144,0.0086,0.0115,0.0029,0.0012,0.0015,2e-04
"P63104",32.702645309587,32.7067672982222,32.6110486688296,32.5504128710908,32.6501014453934,32.4284223467122,32.6220031257192,32.6372009566856,32.5085252340303,32.3567844726236,32.4309162022008,32.1238613837949,32.3356457055654,32.3249590267682,31.9188325813967,32.3114883869707,32.3827796811565,32.3087790997127,-0.1305,-0.0842,-0.3696,-0.4803,-0.3391,0.7468,0.4393,0.0095,0.0011,0.0082,0.2311,0.1994,0.0024,3e-04,0.0021,1,1,0.9126,0.0097,0.0908,0.5601,0.5447,0.2065,0.2416,0.4089,0.4851,0.1464,0.1227,0.1489,0.1216,0.2337,0.0955,0.0336,0.0325,0.0017
"P10809",32.6436656204117,32.6902082063487,32.6776629530296,32.5458182970136,32.639359064853,32.727202413831,32.6881248918483,32.6479593588219,32.6713491790974,32.6415139495567,32.6350396153961,32.7652493179789,32.4678157850123,32.4919014035366,32.531946122432,32.2924156535038,32.3087790997127,32.3383050520159,-0.0331,-0.0014,0.0101,-0.1733,-0.3573,1,0.0993,0.7208,0.0123,0,0.3632,0.3594,0.2403,0.0031,6.5099e-06,1,1,0.707,1,0.0079,0.7804,0.6995,0.7283,0.5863,0.387,0.5093,0.0248,0.3154,0.045,0.0086,0.4001,0.3219,0.2591,0.004,4e-04
"P49368",32.6198188784574,32.522623343361,32.5155915095817,32.4433212230916,32.4433212230916,32.3956037215141,32.3672388302607,32.2647239196348,32.27586447724,32.3930480166103,32.3981549070434,32.2364902389058,32.4133680009899,32.2421813509837,32.2478501010704,32.3114883869707,32.2163926695488,32.3329814480384,-0.1253,-0.2501,-0.2101,-0.2515,-0.2657,0.4481,0.0073,0.0141,0.0034,0.0015,0.112,0.0018,0.0035,9e-04,4e-04,1,0.1246,0.9126,0.1003,0.0079,0.5516,0.2617,0.4119,0.4882,0.5049,0.4161,0.0958,0.3074,0.3785,0.3824,0.1483,0.0112,0.0297,0.0175,0.004
"P51991",32.2250402181623,32.2951558158488,32.2506761451492,32.2421813509837,32.3853536248203,32.286919665749,32.7047077760439,32.7251718786036,32.6220031257192,32.6650076522236,32.6000103973772,32.4531690090479,32.5037950821179,32.3409595054619,32.2393386012149,32.2951558158488,32.2018638957962,32.3356457055654,0.0479,0.427,0.3158,0.1044,0.0206,0.7121,4e-04,0.0025,0.2447,0.4601,0.3561,1e-04,6e-04,0.0612,0.1597,1,0.1246,0.0153,0.8477,1,0.7411,0.1317,0.2677,0.4751,0.5429,0.2151,0.0205,0.1632,0.9919,0.1534,0.328,0.0044,0.0247,0.1033,0.152
"Q07065",32.8290359110461,32.8384591649327,32.8955483571395,32.9009550906665,32.932976763717,32.8496864203559,32.7493516910987,32.7573224022073,32.6415139495567,32.5821715915395,32.5549928591941,32.4871163409712,32.4234216656538,32.3383050520159,32.3594051727827,32.2951558158488,32.2163926695488,32.3087790997127,0.0402,-0.1383,-0.3129,-0.4806,-0.5809,0.1799,0.0308,1e-04,1.2627e-06,9.5786e-08,0.3283,0.0154,0,3.1568e-07,2.3946e-08,1,0.0089,0.0123,0.6417,0.0079,0.7501,0.4454,0.2636,0.2051,0.1647,0.045,0.3555,0.0638,0.0232,0.0328,0.2861,0.0371,0.0045,0.0011,6e-04
"P36578",32.4966706476845,32.5481174131032,32.6132462245339,32.7770586202685,32.6671245932357,32.69851151008,32.4234216656538,32.4083147732636,32.4209148100433,32.4007015891538,32.3802011370547,32.3904877762918,32.3515287471721,32.5108845069042,32.4919014035366,32.27863622649,32.2924156535038,32.2336362418507,0.1616,-0.1351,-0.1622,-0.1012,-0.2844,0.0732,0.0742,0.0209,0.1164,2e-04,0.0282,0.0185,0.0052,0.0291,0,1,1,1,1,0.0079,0.5367,0.452,0.4891,0.7134,0.4779,0.0244,0.0697,0.0799,0.9479,0.012,0.1185,0.0415,0.0298,0.0682,0.0036
"P31948",32.0863866783763,32.1052457056276,32.2421813509837,32.1083650474718,32.2250402181623,32.0511581900653,32.0958470076253,32.0315737937469,31.8682065083267,32.2163926695488,32.1238613837949,31.8828532842911,32.3060647150157,32.1812746262939,32.1361397135734,32.3303122612624,32.1391930375509,32.3195858546693,-0.0164,-0.1461,-0.0702,0.0632,0.1184,1,0.1605,0.5984,0.4373,0.1175,0.458,0.0803,0.1496,0.1458,0.0534,1,0.9945,0.99,1,1,0.8085,0.4575,0.6744,0.525,0.4279,0.9721,0.0482,0.4394,0.1999,0.0392,0.4659,0.089,0.197,0.1326,0.0581
"P61158",32.6818568369158,32.6628876003492,32.6479593588219,32.5435155111442,32.6628876003492,32.5272922634258,32.7473521134524,32.6350396153961,32.6501014453934,32.6241840710188,32.5365850172355,32.4702425224068,32.4457894786823,32.327638126964,32.3087790997127,32.2134985962796,32.2307765877115,32.3087790997127,-0.0863,0.0133,-0.1206,-0.3035,-0.4132,0.7689,0.2712,0.1165,5e-04,0,0.1922,0.321,0.0291,1e-04,4.37e-06,1,1,1,0.1003,0.0079,0.6378,0.7237,0.5595,0.4086,0.3182,0.4197,0.0678,0.7819,0.0422,0.0086,0.2375,0.2721,0.0597,0.0124,0.0024
"P55209",32.5933466670962,32.6022248184426,32.6692384325016,32.9206082062866,32.9797148235437,32.8195507023826,32.5709092779764,32.6088477606364,32.4653849587575,32.4919014035366,32.369840625449,32.1723599014861,32.2221634574067,32.0183682549476,32.1543634721923,32.3303122612624,32.1083650474718,32.2703049518981,0.285,-0.0732,-0.2769,-0.49,-0.3853,0.0389,0.7576,0.0152,2e-04,8e-04,0.0194,0.1894,0.0038,0,2e-04,0.0259,1,0.9126,0.0097,0.0079,0.2353,0.5663,0.3338,0.2039,0.362,0.0244,0.5899,0.1506,0.0371,0.0423,0.0961,0.1145,0.0524,0.0078,0.0091
"P38646",31.8384591649327,31.7533425512947,31.7573224022073,31.6881248918483,31.7612913044102,31.6797614189136,31.9364912478932,31.8346972461365,31.8080855158892,32.0672778554286,32.0672778554286,32.0216809889885,32.2393386012149,32.2105987057738,32.1573785099477,32.2450185102872,32.175337601286,32.2703049518981,-0.0733,0.0767,0.269,0.4194,0.4472,0.1439,0.1379,5e-04,5.1463e-06,1.6742e-06,0.1969,0.0911,1e-04,1.2866e-06,4.1855e-07,1,1,0.0228,0.0147,0.012,0.6731,0.6491,0.3141,0.1457,0.1356,0.036,0.0345,0.1957,0.0477,0.0086,0.2097,0.1003,0.0069,0.0015,9e-04
"P48643",32.4007015891538,32.3827796811565,32.27586447724,32.3567844726236,32.327638126964,32.27863622649,32.1422399131098,32.1083650474718,32.1207754039212,32.2563116798186,32.2307765877115,32.1300136107765,32.3033452136621,32.2250402181623,32.2421813509837,32.2192809488736,32.1573785099477,32.3033452136621,-0.0321,-0.2293,-0.1474,-0.0963,-0.1264,0.986,0.0049,0.0412,0.1506,0.0438,0.3696,0.0012,0.0103,0.0377,0.011,1,0.1246,0.1248,0.1003,0.0908,0.7684,0.2939,0.5174,0.7103,0.705,0.3287,0.0482,0.1411,0.568,0.682,0.3745,0.0239,0.0379,0.0493,0.0299
"P27824",31.7129282828488,31.7887720408323,31.8973528539863,32.0511581900653,31.9117081469633,31.9949636506127,31.8571230091977,31.9677421818777,31.8080855158892,31.9882062844374,31.9574002376562,32.0543965641318,32.1483144275195,32.1176828088658,32.1989405005895,32.1989405005895,32.0640682989527,32.3776179760407,0.1863,0.078,0.2003,0.3553,0.4139,0.2598,0.4858,0.0458,0.0011,2e-04,0.0649,0.1619,0.0115,3e-04,0,0.3452,0.9945,0.1567,0.0147,0.012,0.5247,0.6705,0.4295,0.1959,0.1689,0.9721,0.2176,0.8187,0.0501,0.2899,0.1572,0.1523,0.0333,0.0102,0.0113
"Q05682",32.3672388302607,32.3060647150157,32.4057815065181,32.2814026607814,32.4108435995744,32.3436090838758,32.2534966642115,32.2421813509837,32.0958470076253,32.1391930375509,32.1361397135734,31.9469836217109,32.1330799138243,31.9983305017111,31.9223816484778,32.1723599014861,32.2250402181623,32.2534966642115,-0.0144,-0.1625,-0.2856,-0.3418,-0.1427,0.4458,0.0564,0.004,8e-04,0.0701,0.453,0.0282,0.001,2e-04,0.0175,1,0.0153,0.1248,0.1003,0.0908,0.798,0.4103,0.3075,0.3689,0.6794,0.1114,0.4354,0.0984,0.1092,0.1666,0.4505,0.0469,0.0261,0.0133,0.0097
"P12956",32.5595583536399,32.5731687851585,32.5202832049064,32.4653849587575,32.5458182970136,32.4083147732636,32.7170210374827,32.6922885167898,32.7770586202685,32.6110486688296,32.6154404379468,32.5686462264678,32.4847178449227,32.4057815065181,32.4334057542265,32.2163926695488,32.175337601286,32.2250402181623,-0.0778,0.1778,0.0474,-0.1097,-0.3454,0.6624,0.0112,0.2059,0.0661,0,0.1656,0.0028,0.1194,0.0165,3.2944e-06,1,0.7113,1,1,0.0079,0.6628,0.4591,0.653,0.6912,0.4002,0.4349,0.0248,0.0515,0.2872,0.0146,0.239,0.0118,0.0551,0.0154,5e-04
"P19338",32.2841638004585,32.455620488042,32.6415139495567,32.8700455079905,32.7453497605412,32.6198188784574,32.7292300951779,32.7473521134524,32.6198188784574,32.7413366980346,32.6692384325016,32.7047077760439,32.5179392644381,32.4358910176161,32.4990493704672,32.3303122612624,31.9045483553905,32.3168917455,0.2846,0.2384,0.2447,0.0239,-0.2765,0.2007,0.1324,0.0817,0.8758,0.0287,0.0502,0.0331,0.0204,0.2189,0.0072,1,0.9165,0.9126,0.8477,0.0908,0.3894,0.4212,0.3972,0.614,0.563,0.1832,0.3063,0.2996,0.8881,0.1361,0.1895,0.0779,0.0706,0.226,0.0535
"Q8IVF2",30.8534095063987,30.7292300951779,30.8157390884326,31.0989867151559,31.0479125305616,30.932976763717,32.1812746262939,32.1901346032141,32.2105987057738,32.7473521134524,32.6839492158771,32.5435155111442,32.6458140869903,32.5776772108303,32.5365850172355,32.1603872598201,32.1603872598201,32.2336362418507,0.2272,1.3945,1.8588,1.7872,1.3853,0.0488,5.7412e-10,6.836e-12,3.4908e-12,3.3645e-11,0.0127,1.4353e-10,1.709e-12,8.7269e-13,8.4113e-12,0.5152,0.0218,0.0153,0.0097,0.012,0.3538,0.0013,0.0012,0.003,0.0066,0.0244,0.0292,0.0323,0.019,0.0086,0.1134,0.0032,0.0014,3e-04,3e-04
"P52209",31.5249596921159,31.5663796194959,31.4774983384096,31.6415139495567,31.6372009566856,31.5799261513338,31.8608269779611,31.9152747619835,31.925922006183,32.0958470076253,32.1330799138243,32.0446595527666,32.0927004523085,32.1207754039212,32.1452803674298,32.1300136107765,32.1603872598201,32.2105987057738,0.0966,0.3777,0.5682,0.5966,0.6441,0.0976,0,1.0785e-07,3.7584e-08,9.3517e-09,0.1004,4.3806e-06,2.6963e-08,9.3961e-09,2.3379e-09,1,0.0285,0.0228,0.0147,0.012,0.6318,0.1731,0.0797,0.071,0.0625,0.0244,0.6127,0.047,0.0302,0.012,0.144,0.0034,0.0016,0.0011,4e-04
"P05388",32.5572774123886,32.7005798904212,32.7413366980346,32.5933466670962,32.4158879929684,32.6088477606364,32.27863622649,32.2018638957962,32.3195858546693,32.3195858546693,32.327638126964,32.4032437837162,32.369840625449,32.3060647150157,32.4284223467122,32.175337601286,32.151342120217,32.1723599014861,-0.127,-0.3997,-0.3162,-0.2983,-0.5001,0.4496,2e-04,9e-04,0.0011,5.7852e-06,0.1124,1e-04,2e-04,3e-04,1.4463e-06,1,0.1246,0.1248,0.8477,0.0079,0.6438,0.1303,0.2929,0.4282,0.241,0.3857,0.0639,0.1991,0.723,0.0235,0.2501,0.0117,0.0177,0.0125,0.0063
"P33176",31.6198188784574,31.4032437837162,31.4531690090479,31.3879229844325,31.4966706476845,31.2814026607814,31.4133680009899,31.4433212230916,31.3303122612624,31.8571230091977,31.8042434495948,31.5663796194959,32.1452803674298,32.0348563777362,31.9223816484778,32.1723599014861,32.0348563777362,32.2703049518981,-0.1034,-0.0964,0.2505,0.5421,0.6671,0.4975,0.3085,0.039,1e-04,0,0.2539,0.1572,0.0097,0,2.9831e-06,1,1,0.1895,0.0199,0.012,0.6389,0.538,0.3703,0.0952,0.0609,0.1244,0.0771,0.7469,0.0401,0.0086,0.2994,0.1331,0.0542,0.0055,0.0023
"P63241",32.0672778554286,32.0895470192696,32.0348563777362,32.2591212134054,32.5037950821179,32.2619252862821,32.2841638004585,32.3515287471721,32.1330799138243,32.2192809488736,32.1114776593391,31.8157390884326,32.2647239196348,32.0511581900653,32.1483144275195,32.1573785099477,32.0640682989527,32.2563116798186,0.2777,0.1924,-0.0151,0.0908,0.0954,0.1722,0.2042,0.7398,0.469,0.3319,0.043,0.0511,0.2466,0.1172,0.083,1,0.9165,0.99,1,1,0.2575,0.4467,0.7696,0.4873,0.4504,0.1548,0.415,0.3652,0.7171,0.3539,0.1707,0.0587,0.2755,0.0957,0.0604
"Q02878",32.6022248184426,32.5179392644381,32.4383720071198,32.5014241776551,32.639359064853,32.3827796811565,32.2192809488736,32.2192809488736,32.151342120217,32.2730873925694,32.2163926695488,32.0216809889885,32.3168917455,32.2703049518981,32.1176828088658,32.1812746262939,32.0832193992976,32.1960111695508,-0.0117,-0.3229,-0.3491,-0.2846,-0.366,0.6968,0.0067,0.0025,0.0076,9e-04,0.4654,0.0017,6e-04,0.0019,2e-04,1,0.0153,0.0153,0.0097,0.0079,0.8157,0.1759,0.2274,0.4426,0.3752,0.1742,0.0618,0.1856,0.473,0.0915,0.4835,0.0147,0.0228,0.0157,0.0035
"Q99878",32.3879229844325,32.0800451515025,32.6543761004937,32.3114883869707,32.6022248184426,32.2841638004585,32.7573224022073,32.9294536971533,32.639359064853,32.8883077143833,32.877378154225,32.4919014035366,32.9848156952366,32.3462538051314,32.001689513801,32.1114776593391,32.001689513801,32.3006205763256,0.0252,0.4013,0.3784,0.0701,-0.2362,1,0.1955,0.1593,0.7991,0.195,0.4698,0.0489,0.0398,0.1998,0.065,1,0.7113,0.0904,0.6417,0.0908,0.9316,0.2863,0.3369,0.7344,0.6267,0.8485,0.2041,0.3391,0.9205,0.2102,0.4838,0.0722,0.0757,0.2269,0.0763
"P04843",31.9539363823526,32.0282837238127,31.9677421818777,32.0863866783763,32.0216809889885,32.1361397135734,32.1422399131098,32.0216809889885,32.1114776593391,32.0608515862691,32.0958470076253,32.0446595527666,32.0704802874669,32.0768639042578,32.2364902389058,32.1723599014861,32.0800451515025,32.1422399131098,0.0981,0.1085,0.0838,0.1446,0.1482,0.5965,0.2037,0.2089,0.0423,0.0263,0.1491,0.0509,0.0656,0.0106,0.0066,0.3452,0.9945,0.1567,0.131,0.1158,0.668,0.5979,0.5926,0.4244,0.3878,0.9758,0.7454,0.1476,0.2107,0.0392,0.1769,0.0525,0.0336,0.0445,0.0078
"P16401",31.8042434495948,32.0282837238127,32.1783091678173,32.2841638004585,32.3515287471721,31.9711730872779,32.7790174733066,32.8440837141266,32.6198188784574,32.7652493179789,32.6628876003492,32.3356457055654,32.4847178449227,32.3006205763256,32.1812746262939,32.2163926695488,31.925922006183,32.2134985962796,0.1987,0.744,0.5843,0.3186,0.115,0.7725,7e-04,0.0027,0.0606,0.3735,0.1931,2e-04,7e-04,0.0152,0.0934,1,0.0153,0.0153,0.8477,1,0.6351,0.0281,0.1093,0.2625,0.4686,0.8414,0.0482,0.1734,0.53,0.6184,0.2875,0.0126,0.0245,0.0401,0.1124
"P00568",29.3599287420285,29.4314144564074,29.3494210842101,29.3868957896287,29.4590455753846,29.5351949143104,29.9399971913948,29.9117081469633,29.9117081469633,30.6881248918483,30.7533425512947,30.6628876003492,31.8233522725425,31.6586381273479,31.6110486688296,32.1783091678173,32.0216809889885,32.1543634721923,0.0801,0.5409,1.3212,2.3174,2.7379,0.0976,0,2.9639e-10,3.2039e-13,3.1165e-14,0.2304,2.7278e-06,7.4099e-11,8.0097e-14,7.7913e-15,1,0.1539,0.0904,0.0256,0.012,0.6935,0.0667,0.0045,0.0011,6e-04,0.0244,0.0205,0.0564,0.0144,0.0086,0.2487,0.0044,7e-04,0.0011,3e-04
"P23396",32.5272922634258,32.5342674343421,32.3981549070434,32.4457894786823,32.7190630690209,32.4083147732636,32.1842340017744,32.1930758785262,32.1543634721923,32.3802011370547,32.2450185102872,32.1842340017744,32.3114883869707,32.0800451515025,32.1300136107765,32.1083650474718,32.0800451515025,32.1663860004415,0.0378,-0.3093,-0.2168,-0.3127,-0.3683,0.8012,0.011,0.048,0.0051,0.0011,0.4006,0.0028,0.012,0.0013,3e-04,1,0.0153,0.1248,0.0097,0.0079,0.7974,0.1925,0.4089,0.4073,0.3733,0.2176,0.1009,0.4088,0.2506,0.0311,0.4425,0.0189,0.0333,0.0176,0.0035
"Q9Y4L1",31.4726651846737,31.3981549070434,31.3515287471721,31.372437736935,31.4871163409712,31.3879229844325,31.1663860004415,31.1901346032141,31.1361397135734,31.5754247590989,31.4629500298405,31.4433212230916,32.1269407767269,32.0183682549476,32.0832193992976,32.1021196046409,32.1207754039212,32.1238613837949,0.0084,-0.2432,0.0864,0.6687,0.7081,0.1952,0.0028,0.2167,5.0914e-08,1.5652e-08,0.4629,7e-04,0.0542,1.2728e-08,3.9129e-09,1,0.0454,1,0.0147,0.012,0.8109,0.2732,0.5871,0.0518,0.0499,0.0488,0.0205,0.1127,0.019,0.0086,0.4767,0.0152,0.0881,0.0011,0.0021
"Q9BSJ8",31.1783091678173,31.1238613837949,31.1603872598201,31.1300136107765,31.2421813509837,31.1361397135734,31.0672778554286,31.1176828088658,31.1176828088658,31.7373124414758,31.7413366980346,31.7251718786036,32.0315737937469,32.0511581900653,32.1114776593391,32.1021196046409,32.1021196046409,32.1361397135734,0.0153,-0.0533,0.5804,0.9106,0.9593,0.1439,0.0821,6.6951e-08,2.1379e-10,7.2289e-11,0.4273,0.1378,1.6738e-08,5.3449e-11,1.8072e-11,1,0.2446,0.0351,0.0147,0.012,0.795,0.602,0.0734,0.0222,0.0209,0.036,0.0205,0.0386,0.0144,0.0086,0.437,0.0561,0.0023,5e-04,2e-04
"P40227",32.2591212134054,32.27863622649,32.2047813791785,32.2591212134054,32.2221634574067,32.1207754039212,32.0050407233006,31.9780105173315,32.001689513801,32.0348563777362,32.0608515862691,31.8718821664701,32.0863866783763,32.0768639042578,32.0249861337121,32.1330799138243,32.041399223603,32.1207754039212,-0.0468,-0.2526,-0.2583,-0.1848,-0.1491,0.768,0.0034,0.0018,0.0126,0.0262,0.32,8e-04,4e-04,0.0032,0.0066,1,1,0.99,1,1,0.7328,0.2574,0.3434,0.5703,0.6685,0.256,0.056,0.1598,0.6861,0.2523,0.3299,0.0082,0.0292,0.0049,0.0084
"Q16643",32.0800451515025,31.925922006183,31.9949636506127,31.8973528539863,32.1207754039212,31.9711730872779,31.9081326927395,31.9983305017111,31.8828532842911,32.1989405005895,32.1871873191638,32.0800451515025,32.3060647150157,32.1543634721923,32.1269407767269,32.0479125305616,32.0640682989527,32.1693760430473,-0.0039,-0.0705,0.1551,0.1955,0.0935,1,0.334,0.0926,0.0297,0.1974,0.4843,0.167,0.0232,0.0074,0.0516,1,0.9945,0.99,0.131,0.1158,0.8313,0.5843,0.4742,0.3465,0.4508,0.4919,0.0917,0.3534,0.061,0.148,0.4994,0.1343,0.0395,0.0286,0.0524
"P30086",31.5799261513338,31.4966706476845,31.5888870189055,31.8346972461365,31.9364912478932,31.8682065083267,31.9814171187747,32.1021196046409,32.0249861337121,32.015047896656,32.0895470192696,32.1452803674298,31.9848156952366,32.1693760430473,32.1663860004415,32.0989867151559,32.0446595527666,32.1021196046409,0.3246,0.481,0.5281,0.5517,0.5268,0.005,0,4.236e-06,1.6956e-06,1.7868e-06,0.0012,5.4629e-06,1.059e-06,4.2389e-07,4.4671e-07,0.0943,0.0218,0.0228,0.0199,0.012,0.1769,0.0989,0.0994,0.0901,0.0995,0.3154,0.2155,0.0967,0.0767,0.017,0.0621,0.0037,0.0029,0.0058,8e-04
"P60842",32.8459537014796,32.8828532842911,32.7945932795611,32.8552674526192,32.9898985955298,32.7770586202685,32.3930480166103,32.4234216656538,32.4799088570003,32.4284223467122,32.3594051727827,32.3060647150157,32.2647239196348,32.151342120217,32.2336362418507,32.1083650474718,32.0543965641318,32.0672778554286,0.0329,-0.409,-0.4765,-0.6246,-0.7645,0.4287,1e-04,9.4656e-06,3.3169e-07,1.9931e-08,0.377,0,2.3664e-06,8.2923e-08,4.9828e-09,1,0.0089,0.0123,0.0097,0.0079,0.7763,0.1089,0.1138,0.1043,0.0737,0.1072,0.0678,0.0638,0.0302,0.012,0.4205,0.003,0.0033,0.0011,4e-04
"Q99497",31.5202832049064,31.5342674343421,31.6797614189136,31.7809736702719,31.7211022142945,31.8864918613545,31.8755484836679,31.9608557962924,31.8346972461365,31.8496864203559,31.8937416004339,31.8864918613545,31.943494635631,32.001689513801,31.9469836217109,32.0768639042578,32.1207754039212,32.0117198789383,0.2181,0.3123,0.2985,0.386,0.4917,0.05,9e-04,7e-04,1e-04,2.9397e-06,0.0125,2e-04,2e-04,0,7.3492e-07,0.4062,0.0285,0.0279,0.0199,0.012,0.4643,0.2598,0.2946,0.1731,0.1159,0.7965,0.8074,0.9665,0.0879,0.0567,0.1312,0.0147,0.0212,0.0093,0.0025
"P05413",25.0934562517011,23.6208677298601,23.6096404744368,27.1699733086493,26.7129282828488,27.3409595054619,27.9759626886826,28.0190314105745,28.2353493175013,29.2053641685384,29.0269655921167,28.9145621440185,30.9814171187747,30.8233522725425,30.9117081469633,32.0958470076253,32.1391930375509,31.9539363823526,2.9666,3.9688,4.941,6.7975,7.955,0,8.1398e-08,2.1517e-09,2.8094e-11,2.6972e-12,5.7619e-06,2.0349e-08,5.3793e-10,7.0235e-12,6.7429e-13,0.1996,0.0747,0.0781,0.0596,0.0172,0,0,0,0,0,0.2491,0.0618,0.0323,0.0144,0.0086,0.1061,0.0178,0.0117,0.006,0.003
"P48735",30.2307765877115,30.2421813509837,30.2076929745984,30.4334057542265,30.4919014035366,30.4234216656538,30.9399971913948,30.9814171187747,30.9469836217109,31.3515287471721,31.3827796811565,31.3195858546693,31.7413366980346,31.7848781247279,31.7453497605412,32.0640682989527,31.9882062844374,32.1114776593391,0.2227,0.7292,1.1244,1.5303,1.8277,0.0098,1.5706e-08,4.1187e-11,8.3752e-13,5.3376e-14,0.0024,3.9266e-09,1.0297e-11,2.0938e-13,1.3344e-14,0.266,0.0747,0.0562,0.0256,0.0172,0.3368,0.0212,0.0086,0.0044,0.003,0.0244,0.0292,0.0323,0.0144,0.0086,0.076,6e-04,7e-04,2e-04,6e-04
"Q15084",31.5202832049064,31.4580678084607,31.5108845069042,31.3776179760407,31.4482535186338,31.5799261513338,31.3930480166103,31.3879229844325,31.2421813509837,31.4580678084607,31.4678157850123,31.3249590267682,31.9882062844374,31.9294536971533,31.9848156952366,31.9574002376562,32.0895470192696,32.0640682989527,-0.0278,-0.1554,-0.0795,0.4711,0.5406,0.6058,0.0616,0.1292,0,2.8368e-06,0.4069,0.0247,0.0906,4.5205e-06,7.0921e-07,1,1,1,0.0199,0.0172,0.7959,0.4195,0.6306,0.1169,0.0954,0.1514,0.0205,0.0323,0.019,0.0086,0.4292,0.0512,0.0989,7e-04,0.0019
"P23246",32.4966706476845,32.4358910176161,32.3541590032167,32.5155915095817,32.5365850172355,32.3930480166103,32.6713491790974,32.5618356943509,32.5365850172355,32.4678157850123,32.4605109843891,32.3620211209897,32.3006205763256,32.289670276765,32.2076929745984,31.9949636506127,32.0576276853949,32.0117198789383,0.0528,0.161,0.0012,-0.1629,-0.4075,0.6058,0.0576,1,0.022,0,0.3029,0.0144,0.2662,0.0073,4.9507e-06,1,1,1,0.0097,0.0079,0.7258,0.4888,0.722,0.6092,0.3278,0.1534,0.045,0.8608,0.1611,0.0086,0.3436,0.0399,0.2897,0.0221,0.0032
"P62701",32.4358910176161,32.3488936870041,32.2307765877115,32.3827796811565,32.7413366980346,32.2018638957962,32.3033452136621,32.2307765877115,32.1723599014861,32.2841638004585,32.2421813509837,32.0576276853949,32.2393386012149,32.0511581900653,31.9469836217109,31.9848156952366,31.9294536971533,32.1145835702069,0.1035,-0.103,-0.1439,-0.2594,-0.3289,0.9132,0.7471,0.2692,0.0732,0.0183,0.3044,0.1868,0.0897,0.0183,0.0046,1,0.9165,0.1248,0.8477,0.0908,0.7553,0.52,0.536,0.4969,0.4284,0.4101,0.6895,0.5133,0.2584,0.0649,0.398,0.1146,0.0897,0.0357,0.008
"P07339",31.3409595054619,31.3249590267682,31.27586447724,31.5296210694858,31.6328750312828,31.5061620966618,32.3168917455,32.2534966642115,32.2814026607814,32.3853536248203,32.3006205763256,31.9574002376562,32.0704802874669,31.9152747619835,31.9574002376562,31.9608557962924,31.9294536971533,32.0543965641318,0.2423,0.97,0.9005,0.6671,0.6676,0.1079,7.7124e-07,6.9725e-07,0,6.8113e-06,0.0416,1.9281e-07,1.7431e-07,2.6562e-06,1.7028e-06,0.4656,0.0218,0.0279,0.0199,0.0172,0.2937,0.0065,0.0232,0.0516,0.0576,0.036,0.0205,0.0746,0.045,0.0215,0.0955,7e-04,0.0192,0.0032,0.0011
"Q12906",32.041399223603,31.9949636506127,32.0672778554286,32.1573785099477,32.041399223603,32.0381315097691,32.4457894786823,32.3827796811565,32.4966706476845,32.3672388302607,32.3594051727827,32.1693760430473,32.1269407767269,32.2192809488736,32.1391930375509,31.9780105173315,31.9814171187747,31.9780105173315,0.0444,0.4072,0.2641,0.1273,-0.0554,0.3536,1e-04,0.0021,0.0848,0.1544,0.3355,0,5e-04,0.0212,0.0848,1,0.0153,0.1248,0.9452,0.1158,0.7644,0.1491,0.3288,0.4339,0.6393,0.0884,0.0205,0.2844,0.4155,0.0457,0.33,0.0048,0.0332,0.018,0.0365
"Q9NZM1",32.5776772108303,32.5481174131032,32.5572774123886,32.4895108561116,32.5342674343421,32.4383720071198,32.4580678084607,32.4457894786823,32.4158879929684,32.4678157850123,32.4457894786823,32.3356457055654,32.1989405005895,32.1723599014861,32.1783091678173,31.9574002376562,31.943494635631,32.0216809889885,-0.0736,-0.1211,-0.1446,-0.3778,-0.5868,0.1628,0.0781,0.023,7.4165e-06,3.6137e-08,0.1783,0.0195,0.0058,1.8541e-06,9.0342e-09,1,1,1,0.0097,0.0079,0.668,0.4673,0.5132,0.3064,0.1595,0.0407,0.0697,0.6908,0.019,0.0086,0.1969,0.0066,0.0425,3e-04,0.0011
"O43852",31.9117081469633,31.8682065083267,31.943494635631,32.2134985962796,32.1842340017744,32.2591212134054,32.0672778554286,32.1176828088658,32.0381315097691,31.943494635631,31.9949636506127,32.0989867151559,31.8309254922473,32.0282837238127,32.0479125305616,31.9745958529187,31.9983305017111,31.9469836217109,0.3111,0.1666,0.1047,0.0612,0.0655,0.0074,0.0436,0.1872,0.3126,0.2826,0.0019,0.0142,0.0468,0.1042,0.0706,0.0737,0.0218,0.1567,0.131,1,0.207,0.4796,0.5771,0.5447,0.4811,0.036,0.7418,0.4937,0.8505,0.8981,0.059,0.0116,0.0703,0.1454,0.0257
"Q13200",32.1114776593391,31.9949636506127,31.991588923832,32.0511581900653,32.0927004523085,32.0050407233006,31.8496864203559,31.8682065083267,31.9117081469633,31.9469836217109,31.932976763717,31.7770586202685,32.015047896656,31.9643030979109,31.9117081469633,31.9469836217109,31.9364912478932,32.0117198789383,0.017,-0.1561,-0.147,-0.069,-0.0676,0.7819,0.0433,0.0457,0.3265,0.2463,0.4354,0.0142,0.0124,0.0816,0.0616,1,0.0218,0.0228,1,1,0.7956,0.4164,0.5182,0.7103,0.6563,0.1955,0.0325,0.1476,0.6574,0.251,0.4388,0.0346,0.0572,0.0858,0.0619
"P39023",32.2619252862821,32.1145835702069,32.1693760430473,32.286919665749,32.2047813791785,32.1422399131098,32.0249861337121,31.8718821664701,31.9983305017111,32.0315737937469,32.0348563777362,31.9223816484778,32.0768639042578,31.9848156952366,31.8496864203559,31.9983305017111,31.8937416004339,32.001689513801,0.0294,-0.2169,-0.1857,-0.2115,-0.2174,0.421,0.0301,0.0429,0.0179,0.0107,0.4084,0.0075,0.0107,0.0045,0.0027,1,0.9945,0.99,0.131,0.1158,0.7932,0.3237,0.4509,0.5477,0.5758,0.1053,0.1297,0.1856,0.4138,0.4542,0.4174,0.0272,0.0268,0.0319,0.0091
"P30837",29.2669589240181,29.3889494483967,29.3620211209897,29.559102453797,29.5808247468415,29.3910001879615,30.9188325813967,30.9814171187747,30.8384591649327,31.5844135423262,31.5709092779764,31.3356457055654,31.9745958529187,31.7493516910987,31.7887720408323,31.9539363823526,31.9117081469633,32.0216809889885,0.171,1.5736,2.1577,2.4983,2.6231,0.0976,2.0006e-09,1.5797e-11,1.9693e-12,4.796e-13,0.0965,5.0015e-10,3.9492e-12,4.9233e-13,1.199e-13,1,0.0747,0.0562,0.0256,0.0172,0.5064,9e-04,7e-04,7e-04,7e-04,0.0244,0.0385,0.0323,0.0144,0.0086,0.1802,9e-04,0.0022,7e-04,1e-04
"O00499",29.3044336294368,28.9895602920834,29.0582730421674,29.66627818955,29.6509573902663,29.6110486688296,30.008384166375,29.9677421818777,29.9539363823526,31.1114776593391,31.015047896656,31.0927004523085,31.9081326927395,31.8534095063987,31.7652493179789,31.9504641904458,31.9081326927395,32.0315737937469,0.5253,0.8593,1.9557,2.7248,2.846,4e-04,3.4333e-07,1.4425e-11,1.964e-13,5.3376e-14,1e-04,8.5832e-08,3.6063e-12,4.91e-14,1.3344e-14,0.4043,0.1539,0.0661,0.0256,0.0172,0.0588,0.013,0.0011,5e-04,6e-04,0.0244,0.0345,0.0386,0.0144,0.0086,0.1218,0.0153,0.0042,0.0012,8e-04
"Q9UHQ9",29.6423750030235,29.6180690965074,29.5517883948317,29.9677421818777,29.9949636506127,30.0736756266267,30.8973528539863,30.9539363823526,30.925922006183,31.5977925721274,31.5108845069042,31.5933466670962,31.9081326927395,31.7848781247279,31.9081326927395,31.9045483553905,31.9152747619835,32.0050407233006,0.408,1.3217,1.9633,2.263,2.3375,3e-04,1.8391e-10,7.2698e-13,6.2956e-14,3.0118e-14,1e-04,4.5978e-11,1.8175e-13,1.5739e-14,7.5294e-15,0.3325,0.0747,0.0467,0.0199,0.0172,0.1057,0.0017,0.0011,0.0012,0.0013,0.0616,0.691,0.0386,0.0144,0.0086,0.0621,0.001,5e-04,3e-04,1e-04
"P55786",31.3620211209897,31.3033452136621,31.2814026607814,31.5061620966618,31.5572774123886,31.4580678084607,31.7926554753196,31.8119173774802,31.8755484836679,31.9469836217109,31.9504641904458,31.9117081469633,31.9643030979109,31.9643030979109,31.9223816484778,31.9081326927395,31.9539363823526,31.9223816484778,0.1916,0.5111,0.6208,0.6347,0.6126,0.0244,6.9422e-07,3.1028e-08,1.4071e-08,1.2764e-08,0.0061,1.7356e-07,7.757e-09,3.5178e-09,3.1909e-09,0.4983,0.0285,0.0279,0.0199,0.0172,0.405,0.0816,0.0596,0.0602,0.0723,0.0313,0.1154,0.047,0.0144,0.0215,0.0862,0.0021,0.0019,0.001,6e-04
"P52272",32.1238613837949,32.0800451515025,32.0348563777362,32.151342120217,32.289670276765,32.0768639042578,32.5061620966618,32.4919014035366,32.5037950821179,32.4605109843891,32.4309162022008,32.2279112540171,32.2221634574067,32.0832193992976,32.015047896656,31.8973528539863,31.8755484836679,32.001689513801,0.093,0.421,0.2935,0.0272,-0.1547,0.9243,5e-04,0.0046,0.7566,0.0439,0.2311,1e-04,0.0012,0.1953,0.0158,1,0.0153,0.1248,1,0.1158,0.6443,0.1365,0.2977,0.5674,0.6616,0.892,0.0205,0.2073,0.5117,0.0146,0.2851,0.0077,0.0333,0.1979,0.0145
"Q9UHD8",31.3195858546693,31.2703049518981,31.1901346032141,31.3356457055654,31.4284223467122,31.2478501010704,31.8422112997938,31.9814171187747,31.7770586202685,32.0736756266267,32.0479125305616,31.7652493179789,32.0576276853949,32.0117198789383,31.8864918613545,31.8828532842911,31.8901212847552,32.001689513801,0.0773,0.6069,0.7023,0.7253,0.6649,0.2927,1e-04,7.3412e-06,3.3855e-06,5.5578e-06,0.3005,0,1.8353e-06,8.4637e-07,1.3894e-06,1,0.0285,0.0279,0.0199,0.0172,0.6755,0.0476,0.049,0.0428,0.0591,0.0732,0.1221,0.1127,0.0144,0.012,0.2939,0.0066,0.0141,0.0017,8e-04
"P12883",23.1703554289113,22.9115938695629,24.9270530882017,25.9649915708616,23.1142608668404,23.18101391041,22.429819436852,22.6430634759743,22.4118336913786,28.0030309318808,28.1014935707665,27.6039939112957,29.9539363823526,30.3409595054619,30.1361397135734,31.8937416004339,31.6797614189136,32.1145835702069,0.4171,-1.1748,4.2332,6.474,8.2264,1,0.0984,0,2.8558e-07,1.1428e-08,0.3474,0.0486,9.2131e-06,7.1394e-08,2.8569e-09,1,0.6679,0.0562,0.0507,0.021,0.8456,0.0328,1e-04,0,0,0.5235,0.7938,0.0323,0.0144,0.0086,0.4377,0.1044,0.0184,0.0081,0.0035
"Q8WX93",32.3114883869707,32.1543634721923,32.2018638957962,32.4057815065181,32.4334057542265,32.4184035908872,31.9469836217109,32.0050407233006,32.0315737937469,31.9188325813967,31.8195507023826,31.8157390884326,31.7373124414758,31.7533425512947,31.7251718786036,31.8042434495948,31.9188325813967,31.8901212847552,0.1966,-0.228,-0.3712,-0.484,-0.3515,0.048,0.0041,0,1.5761e-06,0,0.012,0.001,9.0577e-06,3.9403e-07,7.0992e-06,0.0447,0.9165,0.0228,0.0147,0.012,0.4203,0.3033,0.1944,0.2058,0.3959,0.0313,0.2131,0.1033,0.0302,0.1072,0.1499,0.0238,0.0079,0.0079,0.0036
"P50991",31.9009550906665,31.925922006183,31.9009550906665,32.0183682549476,32.008384166375,31.943494635631,31.6922885167898,31.6755614303843,31.7413366980346,31.8459537014796,31.8271438517049,31.7453497605412,31.8973528539863,31.8119173774802,31.9188325813967,31.932976763717,31.7887720408323,31.8828532842911,0.0808,-0.2062,-0.1031,-0.0332,-0.0411,0.1952,0.0069,0.0934,0.4703,0.323,0.1761,0.0017,0.0311,0.1526,0.0985,0.3452,0.0285,1,1,1,0.6658,0.328,0.5855,0.6599,0.6188,0.0488,0.0205,0.0442,0.2352,0.1615,0.1613,0.0087,0.0444,0.1315,0.1049
"Q7KZF4",31.8157390884326,31.7926554753196,31.7373124414758,31.9711730872779,31.9081326927395,31.8718821664701,31.6586381273479,31.6458140869903,31.7573224022073,31.6964401600603,31.6713491790974,31.7129282828488,31.8271438517049,31.8571230091977,31.9294536971533,31.8608269779611,31.8608269779611,31.8534095063987,0.1352,-0.0946,-0.0883,0.0893,0.0765,0.0939,0.0821,0.0969,0.1345,0.0724,0.042,0.0488,0.0408,0.0336,0.0362,1,1,0.1895,1,1,0.5569,0.5312,0.6104,0.4916,0.4648,0.0313,0.0205,0.0323,0.0932,0.0215,0.1134,0.063,0.0329,0.0387,0.0264
"P23284",32.2814026607814,32.1207754039212,32.0895470192696,32.1901346032141,32.440848737412,32.0736756266267,32.1021196046409,32.1483144275195,31.9677421818777,32.0832193992976,31.9504641904458,31.7211022142945,31.9848156952366,31.7332769282406,31.6628876003492,31.8901212847552,31.7573224022073,31.9188325813967,0.071,-0.0912,-0.2456,-0.3702,-0.3085,0.7212,0.7975,0.0922,0.0114,0.0205,0.3606,0.1994,0.023,0.0028,0.0051,1,1,0.1567,0.0147,0.012,0.7431,0.5546,0.3943,0.3471,0.4521,0.2207,0.9658,0.2844,0.1741,0.1558,0.4027,0.1469,0.0692,0.0238,0.0087
"Q00839",32.3956037215141,32.2591212134054,32.1300136107765,32.2647239196348,32.4966706476845,32.0543965641318,32.4334057542265,32.4774983384096,32.4358910176161,32.4847178449227,32.3776179760407,31.9814171187747,32.1812746262939,31.9608557962924,31.8271438517049,31.8534095063987,31.6671245932357,32.0183682549476,0.0104,0.1874,0.0197,-0.2718,-0.4153,1,0.1939,0.9126,0.1131,0.0139,0.4806,0.1117,0.2479,0.0283,0.0035,1,0.1246,0.9126,0.131,0.1158,0.9045,0.4647,0.7568,0.4938,0.3486,0.7671,0.0969,0.8548,0.2038,0.0705,0.4955,0.0761,0.2762,0.0467,0.0139
"P62979",31.8937416004339,31.5663796194959,31.3567844726236,32.0446595527666,32.1361397135734,31.7332769282406,31.7332769282406,31.7770586202685,31.7926554753196,31.9117081469633,31.6458140869903,31.2478501010704,32.0704802874669,31.5296210694858,31.2478501010704,31.9009550906665,31.7088238845161,31.9045483553905,0.3657,0.162,-0.0038,0.0103,0.2325,0.3894,0.7931,1,0.9542,0.2497,0.1285,0.1983,0.2662,0.2462,0.0624,0.3452,1,1,0.9452,1,0.3894,0.5901,0.8978,0.7551,0.3447,0.3054,0.9012,0.7438,0.9542,0.2825,0.2221,0.1759,0.2907,0.2527,0.0717
"P12236",31.7848781247279,31.8271438517049,31.8534095063987,32.041399223603,31.8042434495948,31.9848156952366,31.9045483553905,31.943494635631,32.0989867151559,31.9882062844374,31.9814171187747,32.0381315097691,31.7612913044102,32.001689513801,32.0117198789383,31.8119173774802,31.9223816484778,31.7770586202685,0.1217,0.1605,0.1808,0.1031,0.0153,0.7163,0.171,0.059,0.262,0.6805,0.1791,0.0427,0.0197,0.0722,0.1701,1,0.9945,0.0228,0.131,1,0.6755,0.5136,0.4458,0.5007,0.5541,0.892,0.6337,0.101,0.6779,0.7228,0.2635,0.0644,0.0064,0.1103,0.1694
"O00410",32.3033452136621,32.1633897479816,32.1543634721923,32.1422399131098,32.2421813509837,32.2250402181623,32.0863866783763,32.1021196046409,32.0608515862691,32.1052457056276,32.0348563777362,32.0183682549476,31.9711730872779,31.9081326927395,31.9117081469633,31.7887720408323,31.8195507023826,31.8973528539863,-0.0039,-0.1239,-0.1542,-0.2767,-0.3718,0.5246,0.1135,0.0304,5e-04,0,0.481,0.0284,0.0076,1e-04,4.8396e-06,1,0.9165,1,0.0147,0.012,0.8218,0.4753,0.5064,0.4424,0.3696,0.1312,0.7346,0.4741,0.114,0.017,0.4955,0.0705,0.0423,0.0133,0.0036
"O60506",32.0863866783763,32.1422399131098,32.2250402181623,32.1483144275195,32.2478501010704,32.0768639042578,32.0832193992976,32.1422399131098,32.0608515862691,32.0348563777362,32.0446595527666,31.9677421818777,31.9677421818777,31.8718821664701,31.8718821664701,31.8755484836679,31.7770586202685,31.8346972461365,0.0065,-0.0558,-0.1355,-0.2474,-0.3221,0.8914,0.6829,0.0705,0.0019,1e-04,0.4715,0.1707,0.0176,5e-04,0,1,1,0.99,0.0147,0.012,0.8254,0.6009,0.5383,0.4952,0.4335,0.2228,0.7408,0.3543,0.1304,0.0392,0.4893,0.1445,0.0389,0.0093,0.0033
"P13591",28.6075256022659,28.8799358009089,28.7926554753196,30.1238613837949,30.0608515862691,30.0216809889885,30.8682065083267,30.8534095063987,30.7292300951779,31.6839492158771,31.5709092779764,31.3033452136621,31.9045483553905,31.8003911240992,31.7373124414758,31.8571230091977,31.6543761004937,31.9399971913948,1.3088,2.0569,2.7594,3.054,3.0571,1.3539e-06,1.3285e-09,1.4136e-11,2.1076e-12,7.9848e-13,3.3847e-07,3.3213e-10,3.5341e-12,5.2689e-13,1.9962e-13,0.3325,0.0804,0.0562,0.0256,0.021,3e-04,2e-04,3e-04,3e-04,4e-04,0.0407,0.0877,0.0386,0.0144,0.0086,0.0621,0.0022,0.0015,5e-04,2e-04
"P34932",31.6881248918483,31.6458140869903,31.6501014453934,31.6922885167898,31.7251718786036,31.7292300951779,31.6628876003492,31.6628876003492,31.6586381273479,31.8422112997938,31.7926554753196,31.7770586202685,31.8003911240992,31.7612913044102,31.8080855158892,31.8119173774802,31.7887720408323,31.8571230091977,0.0542,1e-04,0.1426,0.1286,0.1579,0.3044,0.0993,0.0118,0.0163,0.0032,0.2227,0.3639,0.003,0.0041,8e-04,1,1,0.0279,0.1611,0.0172,0.72,0.7009,0.4942,0.4274,0.3696,0.0761,0.0248,0.2844,0.0667,0.0086,0.1366,0.3329,0.0095,0.0046,0.0035
"O75369",33.9677421818777,33.9152747619835,33.9152747619835,33.6839492158771,33.8422112997938,33.6839492158771,33.6415139495567,33.6088477606364,33.5179392644381,33.2336362418507,33.1960111695508,33.001689513801,32.4847178449227,32.4284223467122,32.3802011370547,31.7926554753196,31.7691965024956,31.879205507276,-0.1961,-0.3433,-0.789,-1.5017,-2.1191,0.0939,0.0011,1.7732e-07,5.218e-11,6.0297e-13,0.0351,3e-04,4.4331e-08,1.3045e-11,1.5074e-13,1,0.4071,0.007,0.0022,0.0015,0.3605,0.1552,0.0211,0.0024,6e-04,0.0313,0.0205,0.3084,0.0144,0.0086,0.1558,0.0095,0.0095,4e-04,2e-04
"P11940",32.5595583536399,32.5481174131032,32.4847178449227,32.372437736935,32.4457894786823,32.3114883869707,31.925922006183,31.9045483553905,31.9364912478932,32.0736756266267,32.0216809889885,31.8828532842911,32.0282837238127,31.9081326927395,31.8608269779611,31.8233522725425,31.7211022142945,31.8864918613545,-0.1542,-0.6085,-0.5381,-0.5984,-0.7205,0.1389,4.1565e-06,6.3957e-06,1.3192e-06,1.0396e-07,0.0694,1.0391e-06,1.5989e-06,3.298e-07,2.5989e-08,1,0.0153,0.0153,0.0097,0.0079,0.4726,0.0285,0.0827,0.117,0.0884,0.0407,0.0248,0.0858,0.0634,0.017,0.133,0.0031,0.0089,0.0037,0.0015
"P63244",31.9643030979109,31.7848781247279,31.932976763717,32.286919665749,32.1083650474718,32.3222749421969,31.7251718786036,31.7005798904212,31.8828532842911,31.8271438517049,31.8828532842911,32.1573785099477,31.7691965024956,31.943494635631,32.0576276853949,31.8080855158892,31.8755484836679,31.7373124414758,0.3451,-0.1245,0.0617,0.0294,-0.0871,0.0597,0.2353,0.6759,0.8225,0.3516,0.0149,0.1203,0.169,0.2056,0.0879,0.0737,0.1925,0.99,0.9452,1,0.2338,0.4942,0.6976,0.6024,0.6978,0.0732,0.0588,0.9878,0.8189,0.3462,0.1063,0.1003,0.2116,0.2143,0.0726
"Q14152",32.0927004523085,31.9983305017111,31.9608557962924,32.0348563777362,32.0348563777362,31.9504641904458,31.7691965024956,31.7373124414758,31.7809736702719,31.8571230091977,31.9223816484778,31.7413366980346,31.8973528539863,31.8080855158892,31.8003911240992,31.7965284844668,31.7573224022073,31.8459537014796,-0.0106,-0.2548,-0.177,-0.182,-0.2174,0.6295,0.0031,0.0205,0.0137,0.0031,0.4572,8e-04,0.0051,0.0034,8e-04,1,0.0218,0.1567,0.9452,0.9219,0.8065,0.259,0.4675,0.5757,0.5758,0.1574,0.0385,0.2536,0.6332,0.4233,0.4677,0.0192,0.04,0.0163,0.0074
"P53396",32.0543965641318,32.0249861337121,31.9848156952366,32.0183682549476,32.1052457056276,31.9574002376562,31.5663796194959,31.5481174131032,31.5754247590989,31.5061620966618,31.4032437837162,31.29789078357,31.6713491790974,31.6543761004937,31.6241840710188,31.7731329170547,31.7887720408323,31.8384591649327,0.0056,-0.4581,-0.619,-0.3714,-0.2213,0.1628,0,3.3475e-07,0,0.0024,0.475,4.0971e-06,8.3687e-08,0,6e-04,1,0.0218,0.0228,0.0199,0.1158,0.8096,0.0763,0.054,0.3143,0.5669,0.0407,0.0345,0.047,0.0521,0.0311,0.4861,0.0037,0.0089,0.0012,0.0018
"Q08211",31.8384591649327,31.7809736702719,31.6628876003492,31.9009550906665,31.9711730872779,31.7691965024956,31.925922006183,31.9081326927395,31.9983305017111,32.001689513801,32.0050407233006,31.879205507276,31.9294536971533,31.8384591649327,31.8718821664701,31.7926554753196,31.7691965024956,31.8080855158892,0.1197,0.1834,0.2012,0.1192,0.0292,0.4847,0.0417,0.0173,0.1222,0.5484,0.1212,0.0104,0.0043,0.0305,0.1371,1,0.9945,0.1567,1,1,0.6125,0.4605,0.4131,0.4444,0.5344,0.9032,0.4683,0.3875,0.4601,0.7916,0.2507,0.0398,0.0315,0.0544,0.1441
"Q13838",31.6285360955585,31.4083147732636,31.3930480166103,31.5618356943509,31.6671245932357,31.5618356943509,31.8682065083267,31.7926554753196,31.8608269779611,31.9504641904458,31.8496864203559,31.7088238845161,31.9009550906665,31.8534095063987,31.879205507276,31.7926554753196,31.7533425512947,31.8080855158892,0.1203,0.3639,0.3597,0.4012,0.3081,0.5967,0.001,6e-04,2e-04,0.0011,0.1495,2e-04,2e-04,0,3e-04,0.4656,0.0285,0.1895,0.0199,0.1441,0.6236,0.2071,0.2354,0.166,0.2363,0.2983,0.2926,0.409,0.1216,0.1034,0.2764,0.0298,0.0235,0.0192,0.0186
"P08865",32.1452803674298,32.4629500298405,32.4184035908872,32.2192809488736,32.0640682989527,32.29789078357,31.9983305017111,31.9294536971533,32.0608515862691,31.8682065083267,31.8937416004339,31.8459537014796,31.7292300951779,31.932976763717,31.9223816484778,31.7887720408323,31.8901212847552,31.6458140869903,-0.1485,-0.346,-0.4729,-0.4807,-0.5673,0.5661,0.0095,6e-04,4e-04,1e-04,0.1633,0.0024,1e-04,1e-04,0,0.283,0.1246,0.0228,0.0147,0.012,0.6608,0.2091,0.1485,0.2606,0.216,0.5104,0.3875,0.1063,0.1946,0.0994,0.2903,0.0439,0.0307,0.015,0.0068
"P13489",30.9882062844374,31.0800451515024,31.1114776593391,31.1422399131098,31.2307765877115,31.0863866783763,31.3515287471721,31.4383720071198,31.3981549070434,31.5709092779764,31.5388988830738,31.5572774123886,31.7047077760439,31.6922885167898,31.6797614189136,31.7332769282406,31.7731329170547,31.7926554753196,0.0932,0.3361,0.4958,0.6323,0.7064,0.2854,1e-04,1.1223e-06,4.5639e-08,7.7169e-09,0.127,0,2.8059e-07,1.141e-08,1.9292e-09,1,0.0454,0.0351,0.0256,0.021,0.6567,0.225,0.1132,0.0607,0.051,0.0951,0.3835,0.0799,0.0521,0.0146,0.2372,0.0075,0.0075,0.0042,0.0011
"P62906",32.0216809889885,31.9294536971533,31.8645214615189,32.0315737937469,32.2619252862821,31.925922006183,31.7691965024956,31.7809736702719,31.7926554753196,31.8571230091977,31.8233522725425,31.6628876003492,32.008384166375,31.7453497605412,31.6881248918483,31.7453497605412,31.6881248918483,31.7926554753196,0.1346,-0.1576,-0.1574,-0.1246,-0.1965,0.3845,0.2033,0.1896,0.2704,0.0589,0.1922,0.0678,0.0474,0.0676,0.0147,1,0.9945,0.99,0.1611,0.1441,0.6087,0.414,0.5055,0.6907,0.6094,0.1202,0.0678,0.2446,0.8244,0.2477,0.2965,0.0506,0.0605,0.1117,0.0124
"P15880",31.9949636506127,31.9152747619835,31.7887720408323,32.1693760430473,32.0989867151559,32.1145835702069,31.8309254922473,31.9152747619835,31.9711730872779,31.9009550906665,31.8534095063987,31.7691965024956,31.8645214615189,31.7965284844668,31.7373124414758,31.7047077760439,31.7292300951779,31.7652493179789,0.228,0.0061,-0.0585,-0.1002,-0.1666,0.0482,1,0.4943,0.1828,0.0219,0.012,0.3458,0.1236,0.0457,0.0055,0.3452,1,0.99,1,0.0172,0.3672,0.7301,0.6739,0.7121,0.6472,0.0488,0.8567,0.3875,0.3827,0.1691,0.1513,0.3202,0.1694,0.0861,0.0313
"Q53GG5",29.2444515246085,29.0374770778953,29.1164439122325,29.8126825299993,30.0479125305616,29.9539363823526,30.4823153547074,30.5572774123886,30.4531690090479,31.1114776593391,31.0348563777362,30.8534095063987,31.3879229844325,31.5933466670962,31.6066434897096,31.7047077760439,31.6628876003492,31.7887720408323,0.8054,1.3648,1.8671,2.3965,2.586,0,1.5706e-08,1.4966e-10,4.1928e-12,8.5282e-13,9.9771e-06,3.9266e-09,3.7415e-11,1.0482e-12,2.1321e-13,0.3452,0.0992,0.0781,0.034,0.021,0.0062,0.0014,0.0012,9e-04,8e-04,0.0244,0.9999,0.047,0.0144,0.0086,0.0621,0.0027,0.0014,4e-04,3e-04
"P17987",31.7612913044102,31.7965284844668,31.7170210374827,31.7292300951779,31.8459537014796,31.7211022142945,31.5388988830738,31.5709092779764,31.6198188784574,31.7251718786036,31.7211022142945,31.6154404379468,31.7088238845161,31.6543761004937,31.7211022142945,31.7413366980346,31.6839492158771,31.7088238845161,0.0071,-0.1817,-0.071,-0.0635,-0.0469,1,0.0148,0.298,0.316,0.1566,0.4662,0.0037,0.0745,0.079,0.0863,1,0.1925,0.1895,1,1,0.8116,0.3754,0.6499,0.7051,0.6305,0.3593,0.0248,0.3036,0.5465,0.0392,0.4794,0.0106,0.0866,0.0471,0.0507
"P19105",31.2134985962796,31.4531690090479,31.3930480166103,31.8571230091977,31.8608269779611,31.6154404379468,31.7251718786036,31.7691965024956,31.7413366980346,31.7292300951779,31.5888870189055,31.5844135423262,31.6839492158771,31.5572774123886,31.7047077760439,31.6922885167898,31.7005798904212,31.7211022142945,0.4246,0.392,0.2809,0.2954,0.3514,0.004,0.0011,0.0076,0.0041,8e-04,0.001,3e-04,0.0019,0.001,2e-04,0.1086,0.0358,0.0351,0.0256,0.021,0.1304,0.1743,0.3343,0.2526,0.2042,0.2336,0.2259,0.9878,0.4014,0.1047,0.1066,0.028,0.0303,0.0205,0.0149
"P05387",32.2250402181623,32.1452803674298,32.1930758785262,31.9814171187747,32.2336362418507,31.9608557962924,31.7731329170547,31.8195507023826,31.6154404379468,31.9677421818777,31.9152747619835,31.7809736702719,31.9608557962924,31.6755614303843,31.6671245932357,31.8195507023826,31.5572774123886,31.7129282828488,-0.1292,-0.4518,-0.2998,-0.42,-0.4912,0.5305,0.0024,0.0219,0.002,4e-04,0.2186,6e-04,0.0055,5e-04,1e-04,0.3452,0.0218,0.0228,0.0147,0.012,0.5827,0.0843,0.2816,0.2828,0.2481,0.3537,0.056,0.4073,0.2493,0.1034,0.2861,0.0153,0.0202,0.0241,0.0084
"Q14974",32.2534966642115,32.0479125305616,32.0117198789383,32.0832193992976,32.2018638957962,32.1207754039212,31.8422112997938,31.9504641904458,31.8718821664701,31.8271438517049,31.7612913044102,31.7770586202685,31.8346972461365,31.8682065083267,31.7848781247279,31.6881248918483,31.6964401600603,31.7047077760439,0.0309,-0.2162,-0.3159,-0.2751,-0.408,0.6696,0.0154,6e-04,0.0015,0,0.3907,0.0039,2e-04,4e-04,7.4213e-06,1,0.0218,0.0228,0.0147,0.012,0.7959,0.3379,0.2726,0.4643,0.3331,0.1674,0.3707,0.149,0.3623,0.0567,0.4385,0.0574,0.0333,0.0291,0.0132
"P49411",31.3567844726236,31.3567844726236,31.3195858546693,31.3303122612624,31.3827796811565,31.2364902389058,31.8080855158892,31.7652493179789,31.6372009566856,31.8828532842911,31.8309254922473,31.6154404379468,31.7731329170547,31.6713491790974,31.6328750312828,31.6755614303843,31.6066434897096,31.7965284844668,-0.0279,0.3925,0.432,0.3481,0.3485,0.3044,0.001,3e-04,0.0012,8e-04,0.4197,3e-04,1e-04,3e-04,2e-04,1,0.0358,0.0351,0.0256,0.021,0.7672,0.1618,0.1588,0.1921,0.1994,0.0761,0.0969,0.1734,0.0335,0.0392,0.3971,0.0175,0.0268,0.0091,0.0096
"P07814",31.5754247590989,31.4726651846737,31.4433212230916,31.5435155111442,31.6241840710188,31.4774983384096,31.3515287471721,31.3879229844325,31.3672388302607,31.4871163409712,31.4334057542265,31.4032437837162,31.6328750312828,31.5799261513338,31.5844135423262,31.6839492158771,31.6328750312828,31.7413366980346,0.0513,-0.1282,-0.0559,0.1019,0.1889,1,0.0723,0.2215,0.1188,0.0049,0.2881,0.0241,0.1107,0.0297,0.0012,1,1,1,0.1872,0.1682,0.7219,0.4643,0.6696,0.4675,0.3346,0.8233,0.0248,0.0707,0.1291,0.0195,0.343,0.0529,0.1275,0.0475,0.0104
"P40939",31.0672778554286,30.9677421818777,30.9399971913948,31.1361397135734,31.1783091678173,31.0672778554286,31.3776179760407,31.3141925958991,31.4433212230916,31.5527046825988,31.5572774123886,31.5754247590989,31.6285360955585,31.5342674343421,31.6154404379468,31.7170210374827,31.6755614303843,31.6671245932357,0.1356,0.3867,0.5701,0.6011,0.6949,0.169,0,3.9899e-07,1.3799e-07,1.5495e-08,0.0537,0,9.9746e-08,3.4498e-08,3.8738e-09,0.5152,0.0552,0.0351,0.0256,0.021,0.5483,0.1721,0.0797,0.0716,0.0524,0.0845,0.8808,0.0515,0.019,0.0146,0.1573,0.0064,0.0075,0.0014,0.0014
"P40261",31.5014241776551,31.4774983384096,31.4531690090479,31.8864918613545,31.7332769282406,31.9949636506127,31.8682065083267,31.7533425512947,31.9364912478932,31.5342674343421,31.5844135423262,31.6066434897096,31.4234216656538,31.5481174131032,31.5481174131032,31.6241840710188,31.8042434495948,31.6110486688296,0.3942,0.3753,0.0977,0.0292,0.2025,0.005,0.0011,0.1059,0.2863,0.0203,0.0012,3e-04,0.0794,0.1909,0.0051,0.1086,0.0285,0.0351,0.1872,0.021,0.1562,0.1886,0.5764,0.5713,0.3306,0.0488,0.056,0.0772,0.1321,0.1521,0.1251,0.0189,0.0228,0.1645,0.0257
"Q0ZGT2",30.6198188784574,30.6628876003492,30.6881248918483,30.7691965024956,30.7691965024956,30.7612913044102,30.9188325813967,30.8901212847552,30.8003911240992,31.0543965641318,31.0348563777362,30.9117081469633,31.5061620966618,31.4083147732636,31.3515287471721,31.6285360955585,31.6671245932357,31.7413366980346,0.1096,0.2128,0.3434,0.7651,1.0221,0.1439,0.0102,1e-04,2.1125e-08,4.1436e-10,0.1176,0.0026,0,5.2812e-09,1.0359e-10,0.6683,0.3,0.0781,0.034,0.021,0.6167,0.4024,0.23,0.0366,0.018,0.036,0.045,0.3142,0.0501,0.0086,0.1235,0.0171,0.0112,0.0022,4e-04
"P43243",31.7691965024956,31.6797614189136,31.6881248918483,31.5844135423262,31.7809736702719,31.5342674343421,31.8195507023826,31.8157390884326,31.7691965024956,31.9294536971533,31.9223816484778,31.7211022142945,31.9608557962924,31.7533425512947,31.8080855158892,31.6328750312828,31.6372009566856,31.7373124414758,-0.0791,0.0891,0.1453,0.1284,-0.0432,0.6108,0.4139,0.1432,0.1266,0.499,0.2727,0.138,0.0358,0.0423,0.1247,1,0.1925,1,1,1,0.6779,0.6217,0.4913,0.4339,0.625,0.2036,0.7557,0.4224,0.0422,0.5625,0.3372,0.0489,0.0767,0.0633,0.0953
"Q07020",32.1330799138243,32.0927004523085,31.9643030979109,32.1021196046409,32.2814026607814,31.9223816484778,31.8755484836679,31.9780105173315,31.7211022142945,32.0989867151559,32.0117198789383,31.7211022142945,32.0117198789383,31.6881248918483,31.7129282828488,31.6066434897096,31.5342674343421,31.8459537014796,0.0386,-0.2051,-0.1194,-0.2591,-0.4011,0.8874,0.2949,0.4886,0.0902,0.0087,0.4326,0.0737,0.1221,0.0226,0.0022,1,0.1599,1,0.1611,0.1158,0.7974,0.3547,0.5996,0.5009,0.3546,0.2958,0.2729,0.8405,0.4498,0.0584,0.4463,0.0613,0.1557,0.0484,0.0132
"P61247",31.9504641904458,31.8901212847552,31.7848781247279,31.9469836217109,32.2221634574067,31.7965284844668,31.8080855158892,31.6755614303843,31.6881248918483,31.8864918613545,31.8571230091977,31.6458140869903,31.7770586202685,31.7612913044102,31.7612913044102,31.6797614189136,31.5709092779764,31.7292300951779,0.1134,-0.1512,-0.0787,-0.1086,-0.2152,0.7167,0.2567,0.5582,0.3223,0.0343,0.2389,0.079,0.1396,0.0875,0.0114,1,0.1925,1,0.1611,0.0172,0.6827,0.4331,0.652,0.698,0.5861,0.3389,0.1679,0.6336,0.8377,0.1558,0.3542,0.0543,0.1622,0.06,0.0136
"P46821",32.1930758785262,32.0832193992976,32.0348563777362,31.8901212847552,32.001689513801,31.8195507023826,30.9882062844374,31.015047896656,30.9469836217109,30.9539363823526,30.8755484836679,30.7848781247279,31.2134985962796,31.0800451515024,31.1422399131098,31.6110486688296,31.5888870189055,31.6922885167898,-0.1999,-1.1203,-1.2323,-0.9585,-0.473,0.1097,6.5191e-09,6.7973e-10,7.1673e-09,0,0.0274,1.6298e-09,1.6993e-10,1.7918e-09,2.6602e-06,0.3452,0.0218,0.0228,0.0147,0.012,0.3674,0.0011,0.0025,0.0228,0.2564,0.0732,0.0205,0.0386,0.0269,0.0539,0.1499,0.0033,0.0014,0.001,0.0022
"P00387",31.6198188784574,31.5618356943509,31.6328750312828,31.7731329170547,31.7770586202685,31.6922885167898,31.7170210374827,31.7088238845161,31.7965284844668,31.7211022142945,31.6671245932357,31.6713491790974,31.5977925721274,31.5572774123886,31.6022248184426,31.5977925721274,31.6713491790974,31.6198188784574,0.1427,0.1359,0.0817,-0.0191,0.0248,0.1155,0.0426,0.1801,0.3582,0.5154,0.0289,0.0107,0.045,0.1892,0.1289,0.4062,1,1,1,1,0.5299,0.536,0.597,0.638,0.5386,0.1574,0.3112,0.7447,0.0895,0.5048,0.1063,0.0229,0.0336,0.1539,0.1111
"P98160",30.2076929745984,30.286919665749,30.2421813509837,31.2364902389058,31.0216809889885,31.1238613837949,30.6110486688296,30.6881248918483,30.6964401600603,30.9814171187747,30.8608269779611,30.8901212847552,31.3249590267682,31.286919665749,31.1901346032141,31.6458140869903,31.6198188784574,31.6154404379468,0.8817,0.4196,0.6652,1.0217,1.3814,6.2487e-07,1e-04,3.1174e-07,1.3682e-09,2.2503e-11,1.5622e-07,0,7.7935e-08,3.4204e-10,5.6257e-12,0.1829,0.0887,0.0781,0.0414,0.021,0.003,0.1395,0.0499,0.0157,0.0069,0.0761,0.0248,0.4721,0.019,0.012,0.0712,0.003,0.0023,0.001,4e-04
"O15460",30.2534966642115,30.3409595054619,30.27586447724,31.1603872598201,31.0736756266267,31.1603872598201,31.3087790997127,31.3409595054619,31.3249590267682,31.3409595054619,31.3195858546693,31.2534966642115,31.4032437837162,31.3620211209897,31.4629500298405,31.5977925721274,31.6415139495567,31.6372009566856,0.8414,1.0348,1.0146,1.1193,1.3354,1.0529e-07,7.5664e-10,2.3272e-10,3.1152e-11,2.5577e-12,2.6323e-08,1.8916e-10,5.818e-11,7.7881e-12,6.3941e-13,0.1829,0.0552,0.0562,0.034,0.021,0.0035,0.0049,0.0127,0.0116,0.0074,0.9899,0.0325,0.0638,0.0232,0.0086,0.0131,0.0023,7e-04,4e-04,3e-04
"P49588",30.932976763717,30.9469836217109,30.9117081469633,31.0736756266267,31.0608515862691,31.0608515862691,30.9677421818777,30.9677421818777,31.0348563777362,31.1901346032141,31.1543634721923,31.1052457056276,31.4531690090479,31.5202832049064,31.5155915095817,31.5709092779764,31.6881248918483,31.5888870189055,0.1346,0.0596,0.2194,0.5658,0.6854,0.0738,0.131,0.0013,7.4665e-08,4.9964e-09,0.0369,0.1219,3e-04,1.8666e-08,1.2491e-09,0.1829,0.0655,0.0661,0.034,0.021,0.5497,0.6857,0.3766,0.0799,0.0552,0.0244,0.0421,0.0707,0.0144,0.0086,0.0712,0.0637,0.0094,0.0012,0.0019
"P16615",30.5844135423262,30.5202832049064,30.5296210694858,30.5933466670962,30.6285360955585,30.5108845069042,30.6198188784574,30.5572774123886,30.5844135423262,31.3303122612624,31.3409595054619,31.2421813509837,31.8119173774802,31.8271438517049,31.7926554753196,31.5709092779764,31.6110486688296,31.6586381273479,0.0328,0.0424,0.7597,1.2658,1.0688,0.0976,0.1166,6.6634e-09,9.7837e-12,4.2168e-11,0.3513,0.1887,1.6659e-09,2.4459e-12,1.0542e-11,1,0.3768,0.0562,0.0199,0.021,0.7549,0.7085,0.0322,0.0081,0.0162,0.0244,0.0292,0.0386,0.0144,0.0086,0.3554,0.1002,0.0017,4e-04,2e-04
"Q14103",31.1723599014861,31.2364902389058,31.3195858546693,31.4032437837162,31.5527046825988,31.4083147732636,31.8309254922473,31.879205507276,31.8309254922473,31.8195507023826,31.7047077760439,31.6154404379468,31.6501014453934,31.6241840710188,31.4678157850123,31.6671245932357,31.5663796194959,31.5388988830738,0.2119,0.6042,0.4704,0.3379,0.348,0.1155,9.0677e-06,1e-04,8e-04,4e-04,0.0289,2.2669e-06,0,2e-04,1e-04,0.1392,0.0285,0.0351,0.034,0.021,0.3894,0.0463,0.1331,0.2105,0.2047,0.318,0.056,0.2073,0.3332,0.0507,0.1255,0.0064,0.0079,0.0098,0.0032
"Q8WUY3",30.27586447724,30.2192809488736,30.2076929745984,30.6372009566856,30.5014241776551,30.5014241776551,30.5663796194959,30.5754247590989,30.6628876003492,31.3567844726236,31.3141925958991,31.2703049518981,31.5527046825988,31.5754247590989,31.5663796194959,31.5754247590989,31.5754247590989,31.6022248184426,0.3124,0.3673,1.0795,1.3306,1.3501,0.0016,0,1.9368e-10,8.4125e-12,3.6515e-12,4e-04,0,4.842e-11,2.1031e-12,9.1287e-13,0.2372,0.0887,0.0562,0.0256,0.021,0.2084,0.1865,0.0102,0.0066,0.0072,0.0244,0.0292,0.0564,0.0144,0.0086,0.0896,0.0048,7e-04,7e-04,3e-04
"O00159",31.4433212230916,31.4133680009899,31.3462538051314,31.4678157850123,31.5342674343421,31.3981549070434,31.7047077760439,31.6964401600603,31.6839492158771,31.7533425512947,31.6922885167898,31.6154404379468,31.5844135423262,31.4678157850123,31.4334057542265,31.5754247590989,31.5014241776551,31.6586381273479,0.0658,0.2941,0.286,0.0942,0.1775,0.518,0.0015,0.0011,0.1985,0.0141,0.259,4e-04,3e-04,0.0496,0.0035,1,0.0358,0.0351,1,0.1682,0.6883,0.2694,0.2993,0.4804,0.3516,0.1625,0.0385,0.1356,0.7931,0.1022,0.2771,0.0125,0.0095,0.0649,0.015
"P29401",32.3168917455,32.1960111695508,32.1207754039212,31.9643030979109,32.0608515862691,31.9677421818777,32.286919665749,32.2250402181623,32.3114883869707,32.1021196046409,32.1361397135734,32.0511581900653,31.7612913044102,31.6797614189136,31.7211022142945,31.5844135423262,31.5481174131032,31.6066434897096,-0.2136,0.0633,-0.1148,-0.4905,-0.6315,0.0415,0.2908,0.1128,2.3936e-06,9.1533e-08,0.0104,0.1431,0.0282,5.984e-07,2.2883e-08,0.3452,1,1,0.0147,0.012,0.3437,0.6819,0.5779,0.1981,0.1322,0.8501,0.0969,0.4795,0.0546,0.0146,0.144,0.171,0.0828,0.0071,0.0036
"Q15365",31.5202832049064,31.3087790997127,31.4383720071198,31.5435155111442,31.3249590267682,31.4234216656538,31.5933466670962,31.6628876003492,31.5888870189055,31.7005798904212,31.6458140869903,31.5888870189055,31.6328750312828,31.6671245932357,31.6066434897096,31.5342674343421,31.5572774123886,31.6154404379468,0.0082,0.1926,0.2226,0.2131,0.1465,0.9384,0.0376,0.0114,0.0113,0.0421,0.4692,0.0094,0.0029,0.0028,0.0117,1,0.2246,0.0351,0.0256,0.021,0.8926,0.4474,0.3845,0.3242,0.3897,0.2796,0.6229,0.3834,0.1336,0.2271,0.4913,0.0516,0.0353,0.0321,0.0384
"Q03001",31.4334057542265,31.3672388302607,31.3249590267682,31.4334057542265,31.4919014035366,31.3620211209897,31.1901346032141,31.1960111695508,31.1543634721923,31.8003911240992,31.7809736702719,31.6922885167898,31.8901212847552,31.8003911240992,31.8233522725425,31.5709092779764,31.5342674343421,31.5933466670962,0.0539,-0.195,0.3827,0.4628,0.191,0.5405,0.0095,0,1.9187e-06,0.0037,0.2703,0.0024,5.1967e-06,4.7969e-07,9e-04,1,0.0454,0.0351,0.0199,0.021,0.7127,0.3444,0.1847,0.122,0.3304,0.1797,0.0248,0.0772,0.0144,0.0392,0.3075,0.0187,0.0042,0.0015,0.0067
"Q92743",30.6198188784574,30.8901212847552,30.8309254922473,30.9469836217109,31.0216809889885,30.8828532842911,32.2047813791785,32.3249590267682,32.3904877762918,32.3904877762918,32.2393386012149,31.9469836217109,31.6415139495567,32.175337601286,32.1573785099477,31.5572774123886,31.6372009566856,31.4871163409712,0.1702,1.5265,1.412,1.2111,0.7802,0.1252,6.0813e-07,5.4596e-07,1.7528e-06,1e-04,0.2281,1.5203e-07,1.3649e-07,4.382e-07,0,1,0.0218,0.0279,0.0256,0.0277,0.5479,0.001,0.0038,0.0125,0.0424,0.0313,0.0205,0.0515,0.0569,0.2846,0.2313,0.0027,0.0051,0.0092,0.003
"P31939",31.8271438517049,31.7691965024956,31.7332769282406,31.7413366980346,31.879205507276,31.6964401600603,31.7211022142945,31.7211022142945,31.6964401600603,31.7292300951779,31.7047077760439,31.5618356943509,31.6415139495567,31.6501014453934,31.5933466670962,31.5435155111442,31.5296210694858,31.5296210694858,-0.0042,-0.0637,-0.1113,-0.1482,-0.2423,1,0.4375,0.1322,0.0385,0.0014,0.4806,0.1458,0.033,0.0096,4e-04,1,0.1925,0.1895,0.1611,0.1441,0.8151,0.5832,0.5779,0.6318,0.5391,0.3409,0.7329,0.4012,0.3958,0.0359,0.4955,0.0785,0.0767,0.012,0.0062
"P30153",31.6241840710188,31.4774983384096,31.4726651846737,31.5527046825988,31.6458140869903,31.5108845069042,31.3409595054619,31.3776179760407,31.4433212230916,31.3981549070434,31.4032437837162,31.4334057542265,31.4678157850123,31.5061620966618,31.4823153547074,31.5388988830738,31.5155915095817,31.5388988830738,0.045,-0.1375,-0.1132,-0.0394,0.0063,0.9374,0.0714,0.0996,0.5536,0.3167,0.3125,0.0178,0.0249,0.1384,0.1791,1,1,1,1,1,0.744,0.4609,0.5766,0.6753,0.56,0.3287,0.0697,0.1158,0.6655,0.0792,0.3729,0.0598,0.0737,0.1547,0.193
"Q9UKY7",31.3930480166103,31.2591212134054,31.2534966642115,31.3776179760407,31.4629500298405,31.1603872598201,31.1114776593391,31.1663860004415,30.9949636506127,31.4580678084607,31.4234216656538,30.9745958529187,31.6671245932357,31.4966706476845,31.27586447724,31.4726651846737,31.4234216656538,31.6839492158771,0.0318,-0.2109,-0.0165,0.178,0.2248,1,0.1166,0.9996,0.2609,0.0832,0.4452,0.0755,0.2499,0.0652,0.0277,1,0.2446,1,1,0.1859,0.7956,0.3313,0.809,0.4028,0.3106,0.9721,0.0292,0.7153,0.1682,0.0341,0.4495,0.0326,0.2777,0.0894,0.0284
"Q86VP6",31.3620211209897,31.2421813509837,31.2364902389058,31.3930480166103,31.4678157850123,31.3879229844325,31.6110486688296,31.6022248184426,31.6543761004937,31.6797614189136,31.6713491790974,31.5754247590989,31.6241840710188,31.4383720071198,31.5249596921159,31.5342674343421,31.4774983384096,31.5799261513338,0.136,0.3423,0.3619,0.2489,0.2503,0.3004,4e-04,1e-04,0.0021,0.0013,0.0751,1e-04,0,5e-04,3e-04,0.4983,0.0358,0.0351,0.2098,0.1682,0.5495,0.2176,0.2058,0.2837,0.2721,0.2355,0.1086,0.1869,0.2872,0.0903,0.1591,0.0123,0.0065,0.0162,0.0058
"P02452",29.8459537014796,29.9117081469633,29.8623059068871,30.9745958529187,30.9882062844374,30.7691965024956,30.8608269779611,30.9399971913948,30.8534095063987,32.6285360955585,32.4653849587575,32.2105987057738,32.3195858546693,32.1238613837949,31.9983305017111,31.5618356943509,31.3462538051314,31.6501014453934,1.0373,1.0114,2.5615,2.2739,1.6461,0,4.5529e-06,6.8022e-11,1.1049e-10,3.0567e-09,9.2472e-06,1.1382e-06,1.7006e-11,2.7621e-11,7.6417e-10,0.2176,0.0747,0.0228,0.0199,0.0277,0.0012,0.0053,4e-04,0.0012,0.004,0.1178,0.0205,0.0323,0.0144,0.0215,0.0724,0.0012,0.0052,0.0025,0.0022
"P62269",31.9045483553905,31.8195507023826,31.7129282828488,31.8346972461365,32.0117198789383,31.8003911240992,31.6797614189136,31.5435155111442,31.5249596921159,31.6839492158771,31.7251718786036,31.3672388302607,31.6755614303843,31.4133680009899,31.5108845069042,31.5061620966618,31.3672388302607,31.5977925721274,0.0699,-0.2296,-0.2202,-0.2791,-0.3219,0.5767,0.1208,0.0947,0.0297,0.0097,0.3474,0.0302,0.0237,0.0074,0.0024,1,0.1925,0.1895,0.1611,0.1441,0.7082,0.3089,0.4375,0.4584,0.4379,0.1442,0.1974,0.4482,0.2624,0.1593,0.3523,0.0326,0.0859,0.0258,0.0102
"P62424",32.1238613837949,32.0282837238127,31.8645214615189,31.9364912478932,32.0863866783763,31.8608269779611,31.6372009566856,31.6458140869903,31.5754247590989,31.8459537014796,31.7170210374827,31.5709092779764,31.7413366980346,31.6839492158771,31.6671245932357,31.4823153547074,31.3033452136621,31.6671245932357,-0.0443,-0.3861,-0.2943,-0.3081,-0.5213,0.7952,0.0062,0.021,0.0128,2e-04,0.3976,0.0015,0.0052,0.0032,0,1,0.0285,0.1567,0.0199,0.0172,0.7815,0.1307,0.322,0.4144,0.2403,0.2468,0.0943,0.3885,0.53,0.0457,0.4263,0.0277,0.0382,0.0254,0.0092
"Q8NC51",32.0282837238127,31.8271438517049,31.8157390884326,32.041399223603,32.3006205763256,31.6328750312828,31.8042434495948,31.8534095063987,31.7413366980346,31.9081326927395,31.9045483553905,31.5754247590989,31.9949636506127,31.6501014453934,31.5155915095817,31.5481174131032,31.2018638957962,31.6797614189136,0.1012,-0.0907,-0.0944,-0.1702,-0.4138,1,0.9945,0.7158,0.3223,0.032,0.3655,0.2539,0.1789,0.102,0.008,1,0.9945,0.99,0.1611,0.0172,0.8133,0.552,0.6482,0.6617,0.3682,0.547,0.8045,0.7979,0.7381,0.0915,0.4207,0.1477,0.1821,0.1181,0.0271
"P09972",31.0608515862691,30.6881248918483,31.0479125305616,31.1901346032141,31.1114776593391,31.1901346032141,30.286919665749,31.0736756266267,30.3409595054619,30.9399971913948,30.9882062844374,30.9949636506127,31.6372009566856,31.2421813509837,31.2478501010704,31.3356457055654,31.4580678084607,31.6586381273479,0.2316,-0.3651,0.0421,0.4434,0.5518,0.507,0.1538,0.8944,0.0418,0.0097,0.2163,0.0385,0.2316,0.0104,0.0024,0.4983,0.346,1,0.0414,0.0277,0.507,0.492,0.714,0.1776,0.1097,0.4777,0.1481,0.4472,0.0972,0.0341,0.2451,0.1356,0.243,0.0334,0.0114
