"Protein.IDs","Gene.names","LFQ.intensity_Day-1_Rep1","LFQ.intensity_Day-1_Rep2","LFQ.intensity_Day-1_Rep3","LFQ.intensity_Day0_Rep1","LFQ.intensity_Day0_Rep2","LFQ.intensity_Day0_Rep3","LFQ.intensity_Day1_Rep1","LFQ.intensity_Day1_Rep2","LFQ.intensity_Day1_Rep3","LFQ.intensity_Day2_Rep1","LFQ.intensity_Day2_Rep2","LFQ.intensity_Day2_Rep3","LFQ.intensity_Day3_Rep1","LFQ.intensity_Day3_Rep2","LFQ.intensity_Day3_Rep3","LFQ.intensity_Day4_Rep1","LFQ.intensity_Day4_Rep2","LFQ.intensity_Day4_Rep3"
"A0AVT1","UBA6",2589150000,2560160000,2499750000,2549830000,2906620000,2533310000,2731750000,2606410000,2650460000,2650360000,2509360000,2392300000,2381880000,2265650000,2204430000,2373600000,2213540000,2470830000
"A0FGR8","ESYT2",2162540000,2012490000,2071030000,2363300000,2525810000,2494340000,2305130000,2450760000,2393810000,2313480000,2383130000,2404190000,2242210000,2272890000,2456550000,2139690000,2199780000,2219560000
"A0PJZ3","GXYLT2",11937000,NA,NA,NA,NA,NA,NA,19762000,37697000,74819000,59984000,47690000,62230000,47891000,40649000,86933000,76043000,98266000
"A1L0T0","ILVBL",853910000,781230000,804570000,916260000,853680000,892520000,828240000,850880000,918820000,877630000,904070000,902830000,832920000,885140000,939990000,859220000,799990000,817990000
"A1X283","SH3PXD2B",856790000,944270000,814410000,832170000,895090000,761400000,762630000,810290000,685750000,777220000,672390000,667160000,663690000,674980000,646700000,658550000,659960000,725850000
"A2A3N6;Q99755","PIPSL;PIP5K1A",66855000,81471000,40492000,15022000,56830000,NA,21727000,19850000,NA,46493000,37402000,10844000,NA,NA,NA,NA,NA,NA
"A2RRP1","NBAS",287195000,221922000,228902000,273548000,266561000,285173000,253510000,248868000,260775000,251629000,269945000,296572000,237784000,281220000,294952000,306730000,280797000,292954000
"A4UGR9","XIRP2",NA,NA,NA,NA,NA,NA,NA,NA,NA,36378000,26099800,20320300,127344000,130869000,156917000,96439000,121957000,120027000
"A5YKK6","CNOT1",1015140000,1052860000,1064880000,1124880000,1124650000,1006840000,1037900000,992810000,1113930000,1060250000,1039970000,1076730000,957540000,969180000,1004500000,931870000,893850000,849740000
"A6NDG6","PGP",294673000,361630000,379090000,321651000,253312000,365310000,368800000,345640000,361420000,292389000,370750000,380620000,358346000,326110000,392180000,416440000,316918000,366300000
"A6NDU8","C5orf51",38201000,94560000,132381000,42830000,85712000,NA,87911000,132487000,38124000,43611000,135217000,47151000,82827000,NA,39559000,33796000,NA,35533000
"A6NFI3","ZNF316",NA,1931600,NA,1807800,NA,6237800,5734500,6005500,7297300,4075000,5696200,5115200,3584800,9108100,8414200,4169800,10332700,9738500
"A6NHR9","SMCHD1",356620000,414120000,367080000,353710000,312276000,355810000,387110000,371030000,399170000,298463000,297237000,360340000,274163000,224718000,218743000,176090000,213443000,208598000
"A7E2V4","ZSWIM8",1142600,9149200,9909500,11713900,3585210,7519600,8084900,2810100,8216000,1550100,7595100,11072700,1855800,10249400,9485900,4411300,9555200,6252000
"A7E2Y1","MYH7B",66658000,20189000,57073000,39009000,59900000,40616000,44633000,58291000,39513000,57322000,38983000,40211000,51913000,52148000,50583000,60534000,33330000,47637000
"A8CG34;Q6PJE2;A6NF01","POM121C",131995000,109525000,101470000,NA,76422000,105761000,122003000,184471000,62650000,166875000,131260000,157292000,54498000,94842000,NA,151902000,141447000,123995000
"C4AMC7;Q6VEQ5;A8K0Z3;A8MWX3","WASH3P;WASH2P;WASH1;WASH4P",251016000,273222000,253596000,281702000,318280000,273947000,344130000,354979000,284375000,342488000,282033000,227424000,315810000,275563000,257479000,322938000,307915000,327808000
"C9JLW8","FAM195B",317730000,312416000,306884000,313044000,336050000,344350000,219815000,248540000,217375000,206109000,269513000,269388000,253276000,246354000,215633000,228394000,1.37e+08,229963000
"E7EW31","PROB1",NA,NA,NA,NA,NA,NA,NA,NA,NA,45931000,NA,NA,175505000,213586000,159131000,39291000,41448000,44284000
"E9PAV3;Q13765;Q9BZK3","NACA",8177600000,9519900000,8620600000,7188800000,8188300000,7247800000,4954200000,5013100000,4602600000,2.1111e+10,20128600000,17596800000,3.9024e+10,3.5144e+10,3.2562e+10,3.6878e+10,3.493e+10,3.8644e+10
"L0R6Q1","SLC35A4",211073000,197834000,222364000,211138000,153158000,226348000,200143000,194492000,198749000,91369000,108910000,171841000,173115000,103208000,46027000,161848000,167585000,110436000
"O00116","AGPS",1638610000,1701130000,1566240000,1720120000,1942310000,1773530000,1913910000,1898320000,1965960000,2078810000,2123330000,1963360000,2036880000,1933420000,2073550000,2130660000,2074260000,2151890000
"O00139","KIF2A",445720000,435920000,480550000,398730000,400280000,346130000,390930000,411360000,380800000,501360000,509140000,401880000,585580000,513900000,470280000,574090000,553450000,614360000
"O00148","DDX39A",1000620000,898310000,916590000,847860000,935140000,789690000,768940000,784460000,859210000,767690000,724850000,531860000,601050000,509710000,446730000,516690000,466380000,534460000
"O00151","PDLIM1",3469900000,3445900000,3235970000,3189600000,3560400000,3328500000,3.545e+09,3490100000,3.1e+09,3052770000,2971660000,2559390000,2820640000,2483050000,2459990000,3210700000,3110300000,3448700000
"O00154","ACOT7",2077090000,1781940000,1.77e+09,1911080000,2100320000,1791490000,1544980000,1571250000,1539450000,1503710000,1481920000,1267290000,1610330000,1313890000,1526770000,1491060000,1335660000,1462280000
"O00159","MYO1C",8646400000,8495200000,8147300000,8846400000,9.211e+09,8446700000,10397900000,10348900000,1.0302e+10,10790600000,10332800000,9811200000,9603200000,8.858e+09,8665100000,9513700000,9053700000,10093500000
"O00161","SNAP23",442390000,421360000,489770000,398880000,366630000,321089000,484480000,438630000,391820000,343180000,389150000,396370000,340170000,312437000,280906000,316418000,285189000,256479000
"O00170","AIP",1382130000,1278200000,1226900000,1399360000,1499400000,1299400000,1305710000,1377620000,1243150000,1218700000,1218740000,1061640000,1045690000,1022150000,1.03e+09,968770000,1029910000,998790000
"O00178","GTPBP1",288778000,340890000,380270000,389010000,364940000,434640000,361840000,359880000,394110000,403280000,421400000,422520000,442040000,449650000,449740000,402010000,411480000,429870000
"O00186","STXBP3",313981000,325163000,360680000,331620000,294404000,279133000,349976000,362760000,383390000,285714000,277298000,267746000,234979000,216974000,230637000,251044000,211687000,231880000
"O00193","SMAP",533230000,425450000,500510000,445980000,350280000,472730000,527540000,577020000,533330000,452920000,395871000,430800000,242619000,254045000,212012000,244516000,239847000,228728000
"O00203;Q13367","AP3B1",2868870000,2858810000,2770620000,2922840000,2860510000,2827280000,2579550000,2533250000,2688950000,2589600000,2637690000,2673100000,2589500000,2473430000,2602750000,2318280000,2370050000,2193430000
"O00217","NDUFS8",93690000,53373000,54896000,126551000,112140000,109977000,138812000,142099000,133156000,129154000,112518000,118759000,140092000,126392000,140029000,142809000,175787000,152114000
"O00231","PSMD11",9209100000,9387800000,9028500000,8290100000,8517900000,7641700000,8737100000,8621900000,8367600000,8783200000,8788700000,7448700000,9.26e+09,8225600000,8295900000,9319700000,8637800000,9.05e+09
"O00232","PSMD12",2856040000,2800690000,2703710000,2826900000,2856630000,2808690000,2737370000,2647940000,2797530000,2696230000,2814790000,2914300000,2902290000,2932130000,2837810000,3141980000,2991040000,3001310000
"O00233","PSMD9",831310000,754670000,906120000,751080000,957380000,869180000,797510000,879030000,749950000,849060000,855140000,824060000,877300000,835390000,713220000,806100000,753770000,774570000
"O00244","ATOX1",1064960000,1366780000,1573340000,1536810000,1579420000,1711050000,1414760000,1486700000,1407860000,1244710000,1259770000,1360430000,1316660000,1192320000,1315870000,1447270000,1178810000,1217440000
"O00264","PGRMC1",1931090000,2229100000,2371160000,2616090000,2864650000,2423930000,2607700000,2647690000,2423850000,2615650000,2354110000,1937330000,2115200000,1828350000,1954070000,2153690000,1897210000,2026610000
"O00267","SUPT5H",955550000,959480000,912260000,928390000,1030990000,850330000,963900000,944080000,909610000,877970000,999330000,846380000,912810000,821500000,779110000,762650000,735180000,723680000
"O00273","DFFA",763530000,713830000,728350000,756220000,716950000,791980000,760260000,671580000,778100000,703270000,669390000,649990000,575150000,579800000,574290000,583320000,536270000,575160000
"O00291","HIP1",244020000,203764000,260883000,462680000,504790000,412230000,787550000,796640000,745690000,1858460000,1676380000,1595570000,1959600000,1860740000,1761930000,1278210000,1127940000,1296100000
"O00299","CLIC1",10542600000,10950200000,11203900000,9905400000,9935300000,8888500000,11576900000,10952600000,10295300000,9572500000,9666600000,8537300000,7.66e+09,7365200000,7172100000,7248800000,6820200000,7701400000
"O00303","EIF3F",4939100000,4765100000,5018900000,4107400000,4523200000,4168100000,3.834e+09,4011100000,3757800000,4030600000,3927800000,3430400000,4266900000,3974500000,3811400000,4058800000,3827400000,4269500000
"O00330","PDHX",174107000,145700000,142414000,88358000,168449000,183667000,181598000,205301000,118962000,200480000,182837000,193920000,241290000,177133000,184386000,202456000,193781000,217858000
"O00399","DCTN6",421620000,385560000,369070000,437950000,459480000,410910000,422140000,364300000,380760000,433050000,401950000,321740000,493440000,352350000,421680000,386280000,401070000,387967000
"O00401","WASL",174665000,135331000,133944000,115322000,188316000,130303000,172444000,196477000,163637000,163874000,169415000,184517000,156674000,49742000,140106000,81389000,165048000,41924000
"O00410","IPO5",15775500000,14351700000,14303300000,14157700000,15205500000,14935600000,13629900000,13725200000,13409300000,13802500000,13145500000,12995700000,12693300000,12031500000,1.2092e+10,11125400000,11316600000,11913400000
"O00422","SAP18",276856000,84592000,148330000,NA,220970000,154250000,60844000,343260000,228530000,245510000,225170000,450450000,200948000,172270000,47465000,116480000,165053000,179900000
"O00423","EML1",23763000,NA,NA,81547000,NA,27281000,115796000,108076000,112259000,106944000,102031000,61511000,95379000,30942000,69640000,62149000,36692000,73847000
"O00425","IGF2BP3",2819780000,2754380000,2762170000,2672900000,2820550000,2501390000,2316140000,2364250000,2358140000,1859980000,1861120000,1736870000,1622990000,1485870000,1505360000,1304490000,1305580000,1.289e+09
"O00429","DNM1L",3152020000,3162090000,3026400000,3102900000,3268800000,3204700000,3388700000,3227580000,3191800000,2963990000,2870350000,2862330000,2592810000,2525770000,2608530000,2400680000,2374970000,2173170000
"O00442","RTCA",550230000,522280000,563730000,523080000,489330000,595940000,562520000,500460000,611340000,575090000,542080000,809340000,549090000,619760000,755050000,637760000,701690000,570970000
"O00459;Q92569","PIK3R2",16994000,43159000,21006000,19669000,85515000,14532000,15548000,NA,18820000,42718000,49953000,20342000,17365000,38061000,NA,NA,NA,NA
"O00461","GOLIM4",640100000,593680000,588380000,681350000,597300000,561530000,309175000,284860000,274219000,245905000,277450000,261878000,405360000,322680000,293026000,385090000,341238000,431640000
"O00468","AGRN",39038000,NA,NA,82027000,NA,NA,NA,NA,75030000,94478000,52176000,107228000,267965000,237190000,291339000,378780000,296428000,302993000
"O00469","PLOD2",8572800000,8120300000,7973300000,8400700000,8984400000,8.612e+09,5635500000,5562200000,5.539e+09,4064800000,3640100000,3.485e+09,3018010000,2784020000,3014490000,3243100000,3378700000,3395400000
"O00471","EXOC5",258469000,287609000,245133000,216186000,241896000,276599000,250656000,248619000,226948000,276198000,260099000,250178000,242423000,283254000,258170000,296930000,308896000,322730000
"O00479","HMGN4",36342000,18899000,35034000,133687000,93246000,120860000,257790000,234478000,160107000,260360000,121508000,157340000,244841000,168520000,146878000,192098000,131118000,96417000
"O00483","NDUFA4",642790000,690090000,722440000,974250000,807390000,873760000,956320000,977990000,1092350000,927530000,1062750000,1058350000,845930000,764840000,742460000,647320000,603700000,662470000
"O00487","PSMD14",2800280000,2517610000,2432700000,2548970000,2728920000,2526320000,2655380000,2549720000,2642490000,2767530000,2898950000,2289490000,2960190000,2369280000,2504520000,3037460000,2844620000,3045730000
"O00499","BIN1",1944400000,1618840000,1683910000,2554820000,2563540000,2457620000,3243900000,3158200000,3108100000,6971800000,6.524e+09,6854800000,12091600000,11670700000,10918100000,1.2473e+10,12072700000,13092600000
"O00505","KPNA3",1592640000,1534600000,1684530000,1436330000,1533730000,1520710000,1286220000,1220790000,1355920000,1200880000,1123050000,1222050000,1107790000,1162690000,1256210000,1164980000,1181640000,1108320000
"O00506","STK25",196745000,204527000,185350000,127304000,188536000,152938000,158605000,157448000,133287000,139832000,162704000,161772000,165390000,86944000,87591000,133275000,88905000,191346000
"O00534","VWA5A",NA,NA,NA,NA,NA,NA,NA,NA,NA,NA,NA,50909000,83758000,123721000,114490000,148091000,188078000,138631000
"O00541","PES1",750960000,641010000,701740000,515330000,677930000,559480000,586900000,604040000,624630000,706480000,640840000,550190000,593220000,537970000,451260000,422260000,407600000,472580000
"O00560","SDCBP",1.249e+09,1066880000,1093210000,776070000,979200000,721300000,604750000,601980000,631760000,599610000,575020000,521930000,587950000,523050000,552230000,487480000,532510000,541190000
"O00566","MPHOSPH10",302518000,272521000,256849000,229328000,290878000,246751000,243519000,246314000,238482000,343110000,262804000,192145000,285552000,125688000,248808000,223707000,231314000,165042000
"O00567","NOP56",4.529e+09,4618100000,4517100000,4858700000,4673600000,4653400000,5426100000,5226900000,5462200000,5481500000,5330100000,5288800000,4946800000,4907100000,4975600000,4534800000,4655100000,4489200000
"O00571","DDX3X",8573600000,8.747e+09,7823400000,7711900000,8.561e+09,7345500000,6498300000,6666400000,6685400000,7036500000,6962200000,6076600000,6757100000,5998900000,6.316e+09,6035600000,5834300000,6300700000
"O00592","PODXL",1259890000,1592360000,1856380000,1463780000,1885900000,1161320000,748790000,866380000,457290000,544500000,501290000,446664000,314680000,352150000,443950000,321434000,183526000,411100000
"O00622","CYR61",145211000,280524000,301093000,74519000,49702000,83211000,NA,NA,NA,NA,NA,NA,NA,NA,NA,NA,NA,NA
"O00625","PIR",87185000,63645000,67901000,46683000,45209000,35412000,66395000,67737000,53593000,49572000,54746000,32561000,74769000,47738000,48557000,42747000,49215000,54579000
"O00629","KPNA4",2741710000,2429680000,2616490000,2197530000,2327870000,2201650000,1887460000,1960710000,2063890000,2010390000,1956320000,2307980000,2066560000,2167530000,2400790000,1998250000,2138380000,1963510000
"O00635","TRIM38",24498000,34088000,31146000,15957000,NA,13170000,47915000,16266000,29432000,8430700,30902000,NA,21028000,NA,NA,39698000,25747000,28876000
"O00743","PPP6C",280399000,396050000,305995000,303560000,284206000,280551000,390928000,387230000,338826000,288413000,400367000,322790000,354153000,4.05e+08,409610000,400670000,407950000,421720000
"O00754","MAN2B1",507660000,574740000,514570000,656360000,611970000,574140000,812020000,877940000,807990000,797690000,898680000,812630000,863560000,730060000,762660000,760870000,671940000,869750000
"O00762","UBE2C",533130000,614100000,697150000,535220000,467070000,686010000,NA,NA,NA,NA,NA,NA,NA,67397000,NA,78925000,NA,NA
"O00763","ACACB",102061000,30183000,33125000,32455000,52172000,NA,35865000,31348000,30703000,NA,33124000,NA,NA,NA,NA,NA,NA,NA
"O00764","PDXK",867890000,744040000,681710000,957300000,986290000,1063140000,1191740000,1197530000,1130720000,1075050000,1242570000,1166720000,1208270000,1322040000,1115610000,1370410000,1496110000,1336730000
"O14494","PPAP2A",NA,NA,NA,18575600,20823600,19382300,85844000,57529000,70757000,81512000,83437000,46757000,88905000,36757000,44010000,40296000,46214000,41907000
"O14495","PPAP2B",60437000,NA,36897000,105731000,126239000,34547000,NA,NA,NA,NA,16098000,NA,NA,NA,NA,NA,NA,NA
"O14497","ARID1A",258620000,219506000,205744000,198352000,221666000,179451000,163727000,173718000,187744000,155561000,180904000,144018000,166009000,80144000,NA,NA,58576000,38403000
"O14530","TXNDC9",1185020000,1047090000,1185530000,880810000,970230000,906660000,606480000,609670000,596840000,698360000,664530000,553400000,640630000,674370000,529780000,550570000,517370000,575060000
"O14545","TRAFD1",81366000,154822000,146103000,87333000,145366000,118253000,184983000,132823000,141551000,191056000,210190000,234767000,242700000,140490000,92235000,294593000,148156000,196351000
"O14548","COX7A2L",NA,92665000,119115000,103718000,NA,146469000,128559000,139242000,124434000,42232000,68546000,148843000,25864000,108248000,114525000,49314000,89984000,NA
"O14558","HSPB6",NA,NA,NA,NA,20734000,NA,NA,NA,NA,73167000,27203000,30800000,197653000,179312000,139534000,253443000,222965000,296584000
"O14561","NDUFAB1",512320000,440530000,483620000,639830000,670300000,550340000,806190000,833420000,750210000,950080000,839900000,691710000,818520000,729890000,756980000,908500000,819460000,798250000
"O14562","UBFD1",170565000,208365000,273815000,281490000,3.46e+08,260254000,276164000,316166000,283206000,316662000,268053000,316900000,328622000,224829000,270489000,298584000,284133000,306575000
"O14578","CIT",169954000,155999000,173906000,61347000,167082000,77306000,NA,NA,NA,NA,NA,NA,NA,NA,NA,NA,NA,NA
"O14579","COPE",2896080000,3223900000,3235500000,2887200000,2932850000,3102160000,2523590000,2389010000,2485650000,2314340000,2236530000,2254790000,2290570000,2258540000,2285180000,2113970000,2184940000,2087610000
"O14613","CDC42EP2",25167000,NA,NA,NA,NA,NA,32395000,61099000,24552000,93579000,91888000,85122000,93419000,NA,NA,29895000,NA,50613000
"O14617","AP3D1",2233940000,2089960000,1940570000,2381070000,2542460000,2032430000,2319390000,2428960000,2350490000,2493690000,2464960000,2139580000,2386440000,1998230000,2187090000,2314500000,2018460000,2256550000
"O14618","CCS",84433000,129217000,174118000,155097000,187944000,160822000,194300000,122501000,178233000,224258000,219280000,193444000,201340000,208928000,197811000,200564000,186765000,218064000
"O14639","ABLIM1",NA,NA,NA,NA,NA,NA,NA,NA,NA,53321000,60683000,NA,148724000,105682000,76035000,147068000,111889000,129707000
"O14641","DVL2",62624000,65011000,89652000,96272000,24921000,26866000,103568000,97111000,63791000,35845000,29213000,65465000,30090000,88352000,57399000,NA,54765000,NA
"O14653","GOSR2",221576000,185690000,160598000,194406000,252129000,193437000,112138000,156791000,160393000,208152000,186858000,91384000,241636000,185927000,201419000,213111000,291779000,219869000
"O14656","TOR1A",29262000,NA,NA,110124000,68191000,NA,33255000,22363000,35395000,NA,NA,NA,NA,NA,NA,NA,NA,NA
"O14672","ADAM10",922060000,944170000,883780000,930580000,863620000,809600000,1058760000,1084320000,1020130000,1106010000,1101890000,953130000,1015230000,1002200000,850850000,861090000,922830000,980050000
"O14737","PDCD5",1218380000,1190540000,1188010000,795210000,1309590000,765120000,989900000,1073430000,765770000,1004750000,9.55e+08,569430000,1114650000,742910000,592520000,960870000,837540000,9.64e+08
"O14744","PRMT5",2528910000,2415120000,2361760000,2333380000,2322430000,2254640000,2423920000,2381280000,2466340000,2498740000,2541900000,2399240000,2595540000,2438300000,2442670000,2734680000,2531490000,2609890000
"O14745","SLC9A3R1",2410770000,2292490000,2549570000,2514250000,2634180000,2620080000,2742250000,2620710000,2325640000,2158990000,2179040000,1959730000,1838750000,1805790000,1862970000,1770610000,1454890000,1829440000
"O14746","TERT",6445400000,6095500000,6260700000,4450100000,4153300000,4.028e+09,1011750000,933500000,854560000,589370000,631930000,592720000,421640000,502550000,468850000,473440000,338586000,375586000
"O14763","TNFRSF10B",121644000,133749000,124156000,77336000,94509000,105818000,66114000,60765000,103515000,26902000,NA,77002000,NA,NA,NA,NA,NA,NA
"O14773","TPP1",916540000,978810000,908880000,958460000,1120530000,1110510000,1819940000,1645360000,1678290000,1991020000,2189730000,1976180000,1841280000,1886940000,1857620000,1901650000,1820750000,1807470000
"O14776","TCERG1",946550000,980590000,996170000,996460000,873720000,949620000,1300220000,1289300000,1236220000,1141610000,1139870000,1117460000,1022390000,1019870000,1036800000,918270000,946660000,1025320000
"O14777","NDC80",197306000,209104000,269575000,198864000,192522000,221422000,149142000,90976000,162644000,NA,NA,NA,NA,NA,NA,NA,NA,NA
"O14786","NRP1",1273190000,1774900000,1469710000,1223950000,1398400000,1704390000,735300000,631050000,777220000,460480000,424692000,539690000,395418000,202768000,236700000,83987000,69512000,128632000
"O14787","TNPO2",297306000,311144000,318775000,324880000,342400000,303424000,368813000,378880000,389040000,346420000,352310000,336913000,401480000,349890000,394320000,357140000,321298000,328700000
"O14807","MRAS",NA,NA,NA,NA,NA,NA,89246000,110352000,44563000,157521000,181740000,41360000,133927000,84200000,28017000,149659000,145545000,123499000
"O14818","PSMA7",6002500000,6433300000,6274300000,5550200000,6540100000,5637100000,6528900000,6377400000,5993600000,6536400000,6615200000,5061200000,6.504e+09,6017700000,5872500000,6640800000,6268700000,6795200000
"O14828","SCAMP3",743020000,657380000,670190000,599320000,699930000,604450000,561890000,502620000,454310000,583990000,551220000,473830000,645380000,537460000,580580000,549130000,490250000,558510000
"O14874","BCKDK",330870000,375280000,292493000,267539000,338850000,277023000,183892000,255116000,273415000,338230000,338883000,284365000,435250000,353856000,307348000,314230000,288830000,302693000
"O14879","IFIT3",31559000,18730000,NA,15186000,15839000,13309000,NA,NA,26724000,23191000,33704000,57042000,NA,14877000,NA,15320000,NA,NA
"O14880","MGST3",384920000,469990000,122940000,503900000,227550000,668630000,461070000,453500000,377610000,310410000,519300000,680660000,383450000,486150000,518290000,454700000,537280000,416940000
"O14907","TAX1BP3",1711300000,1514530000,1557170000,985050000,1123500000,956300000,1257070000,1203180000,1019520000,994830000,936800000,741640000,740520000,490060000,500500000,651990000,532310000,677400000
"O14908;Q8TF64","GIPC1",1506720000,1508230000,1498680000,1368640000,1467600000,1297310000,1413310000,1407070000,1246470000,1346970000,1285070000,967980000,1.355e+09,1042810000,1004320000,1229890000,1146040000,1304190000
"O14920","IKBKB",178586000,154175000,145398000,162715000,181492000,134192000,149833000,160798000,150813000,132836000,159562000,145555000,97033000,116309000,117298000,139537000,119794000,115670000
"O14925;Q5SRD1","TIMM23;TIMM23B",NA,NA,NA,48883000,22177000,21808000,NA,NA,NA,29500000,82242000,46195000,NA,78643000,80535000,NA,55318000,NA
"O14929","HAT1",1182240000,1404390000,1194700000,1278440000,1446510000,1165490000,715450000,879500000,876670000,568290000,633440000,593480000,326249000,412270000,417960000,262879000,NA,211615000
"O14936","CASK",149481000,NA,NA,53248000,171066000,95849000,165969000,161673000,178293000,208927000,208700000,162199000,238455000,163208000,104243000,182728000,192025000,212539000
"O14949","UQCRQ",360440000,340410000,314585000,298819000,393040000,280546000,485370000,375280000,390060000,579790000,498850000,356400000,441980000,372410000,385800000,450460000,387690000,485560000
"P19105;O14950","MYL12A;MYL12B",7.492e+09,8854900000,8548300000,11725100000,1.1744e+10,9892600000,10687300000,11049500000,10834200000,10712500000,9798600000,9350400000,10390300000,9529300000,10573300000,10479500000,10534600000,1.0702e+10
"O14958","CASQ2",NA,NA,NA,NA,NA,NA,NA,NA,NA,63330000,NA,NA,587130000,460210000,531870000,1281780000,1155550000,1055400000
"O14964","HGS",1340610000,1182730000,1270440000,1184790000,1541920000,1105580000,1196630000,1239860000,1.152e+09,1327430000,1230810000,978260000,1214870000,1088270000,906460000,1198970000,1196900000,1226590000
"O14972","DSCR3",246772000,266692000,206374000,271378000,241105000,294316000,323360000,257034000,345600000,237455000,278381000,275842000,225620000,279663000,258219000,244317000,275697000,256457000
"O14974","PPP1R12A",3540500000,3106700000,3228820000,3069600000,3.58e+09,2982810000,3802500000,3.893e+09,3729700000,3929500000,3711400000,3260200000,3625700000,3105300000,2852980000,2877330000,2838210000,3286400000
"O14976","GAK",152829000,144283000,140271000,172904000,146074000,162418000,127070000,41048000,84344000,49843000,48516000,45487000,53457000,NA,NA,NA,NA,36045000
"O14979","HNRNPDL",3262100000,3853400000,4094400000,3650700000,3952200000,3642900000,3789500000,4196300000,4068500000,3925400000,3984900000,4266600000,3.731e+09,3631400000,3.871e+09,3418600000,3357400000,3252700000
"O14980","XPO1",5629600000,5932200000,5647900000,5848900000,6129700000,5875200000,6551600000,6779100000,6.92e+09,6203300000,6384900000,6274700000,5578100000,5468500000,5952900000,5366300000,5377500000,5298800000
"O14981","BTAF1",341860000,309350000,219930000,300566000,290479000,167042000,297596000,304313000,315354000,237338000,272655000,262699000,145550000,183327000,NA,73464000,117589000,NA
"O14983","ATP2A1",NA,NA,NA,NA,NA,36403000,73554000,NA,90425000,540740000,636270000,568890000,918550000,904150000,865300000,726660000,776520000,7.15e+08
"O15013","ARHGEF10",252253000,248006000,240074000,245322000,244951000,207107000,230108000,224674000,183723000,201907000,223699000,127244000,240002000,186822000,186185000,198129000,161109000,249727000
"O15027","SEC16A",886050000,641120000,694910000,823760000,878390000,876730000,874140000,873160000,802630000,896400000,800350000,771070000,993730000,963490000,875140000,979260000,920800000,1078430000
"O15031;O43157","PLXNB2",1156690000,1170860000,1187120000,1007730000,1006740000,1133940000,1447550000,1444730000,1395800000,1210600000,1198280000,1448520000,1086170000,1065560000,1086390000,1.003e+09,1008740000,1038450000
"O15042","U2SURP",1040550000,990480000,823390000,692220000,897720000,632770000,798650000,832450000,710980000,805370000,721080000,566970000,690320000,582380000,506080000,556230000,540250000,586490000
"O15067","PFAS",1525470000,1743080000,1760710000,1746240000,1616330000,1704730000,1550090000,1658680000,1643950000,1545800000,1631850000,1598240000,1398920000,1514630000,1535910000,1424860000,1416610000,1217800000
"O15075;O43602","DCLK1",NA,NA,NA,NA,17550800,NA,786330000,1011570000,939740000,1993560000,1889850000,2157380000,3825600000,3993900000,4041200000,6346500000,7036400000,7312100000
"O15084","ANKRD28",234700000,155712000,123854000,177166000,191573000,155825000,127686000,49769000,165230000,103996000,190883000,76609000,62148000,NA,NA,99828000,NA,26590000
"O15111","CHUK",36123000,28764000,25411000,46564000,48702000,25409000,46281000,33852000,27186000,51937000,32791000,26123000,28098000,34822000,27204000,25148000,21698800,27589000
"O15116","LSM1",212589000,180905000,210992000,142906000,154252000,149144000,154072000,134621000,64035000,35016000,125601000,158590000,68481000,127573000,32838000,94878000,141505000,30787000
"O15118","NPC1",93128000,86767000,55100000,62324000,77602000,NA,28034000,83066000,60436000,47877000,48476000,62761000,72760000,101555000,32620000,NA,121212000,NA
"O15121","DEGS1",68102000,110301000,110769000,167719000,NA,185184000,25606000,NA,103755000,NA,27923000,68704000,NA,29338000,70345000,NA,29754000,NA
"O15126","SCAMP1",317378000,292753000,267291000,404960000,448560000,291049000,312729000,343750000,306734000,281118000,281778000,241096000,293784000,214060000,218279000,293664000,309743000,272651000
"O15143","ARPC1B",3.933e+09,3.728e+09,3672300000,4647200000,4668200000,4838300000,3577500000,4290200000,4215300000,3602900000,3723100000,3603700000,2419970000,3016950000,3263800000,2452470000,2533100000,2379270000
"O15144","ARPC2",9519600000,8864400000,7949300000,8150900000,10615400000,7614900000,8338200000,8307500000,8173100000,8.539e+09,8106500000,6286100000,6981200000,5.706e+09,5783100000,6.137e+09,5703200000,6262800000
"O15145","ARPC3",3322200000,3263100000,2992680000,2622050000,2945340000,2510550000,2941330000,2904590000,2811900000,2803670000,2684620000,2405240000,2295100000,1944340000,2231600000,1989230000,2140360000,2230930000
"O15146","MUSK",NA,NA,NA,13853000,NA,NA,30376000,32772000,63565000,58839000,29293000,69074000,106689000,96677000,117629000,107238000,94882000,62807000
"O15160","POLR1C",409086000,424380000,422940000,335880000,425780000,369640000,374020000,384200000,375390000,358040000,351150000,422540000,351310000,327460000,323055000,282693000,301089000,287975000
"O15173","PGRMC2",868920000,1042790000,1221280000,1055420000,991680000,1200960000,968510000,956280000,978260000,864950000,930950000,1067070000,716590000,928640000,1075710000,909750000,983290000,807940000
"O15212","PFDN6",1138430000,1154020000,1180280000,1077730000,998100000,1137190000,894200000,868310000,927080000,937670000,946910000,1021620000,1014510000,1033440000,1137610000,1042900000,1009550000,1011910000
"O15213","WDR46",29325000,59327000,58562000,70429000,68632000,NA,26456000,23633000,19457000,66304000,70888000,NA,81169000,NA,NA,NA,NA,NA
"O15228","GNPAT",268965000,154229000,247194000,334453000,252436000,190120000,310010000,344310000,390039000,354680000,379337000,248115000,285560000,247976000,86433000,311156000,221907000,290894000
"O15230","LAMA5",288082000,369331000,344620000,5.36e+08,451330000,521040000,723430000,761570000,796960000,677240000,617190000,605310000,587530000,626650000,568060000,533060000,446980000,534810000
"O15231","ZNF185",859130000,721250000,695110000,302691000,370240000,284467000,193412000,178517000,137362000,71140000,21876000,38100000,NA,NA,NA,NA,NA,NA
"O15234","CASC3",70644000,NA,58262000,26995000,101730000,22677000,32352000,69681000,NA,85813000,76898000,51423000,29551000,NA,NA,66738000,NA,NA
"O15235","MRPS12",130684000,99229000,57807000,77514000,104480000,83527000,176294000,171648000,166485000,144128000,151828000,63018000,134965000,168667000,103237000,127050000,88212000,149037000
"O15254","ACOX3",178980000,189775000,185237000,177243000,170826000,154896000,218392000,187949000,224353000,201029000,219519000,253809000,243568000,229172000,307673000,308382000,323540000,307140000
"O15258","RER1",642370000,628320000,482870000,445950000,472570000,465670000,410810000,305712000,415450000,367130000,391100000,417210000,326026000,489030000,402850000,378916000,421390000,382700000
"O15260","SURF4",1136560000,1212250000,1392450000,1688130000,963130000,1541430000,1525590000,1516020000,1786790000,1344260000,1322450000,1933460000,1090120000,1429940000,1673930000,1129130000,1466850000,1060280000
"O15269","SPTLC1",665300000,746350000,713690000,794350000,630820000,749100000,613020000,570430000,661060000,480280000,523590000,545410000,455640000,522030000,475670000,345716000,448910000,372980000
"O15270","SPTLC2",301620000,274741000,319192000,285959000,233443000,257198000,66503000,22666000,50613000,42815000,87209000,130719000,29023000,27396000,80011000,28367000,64639000,32010000
"O15294","OGT",847420000,830070000,806330000,742330000,892240000,763210000,661640000,670490000,623120000,861590000,803780000,751740000,850510000,709180000,783220000,657090000,666810000,723030000
"O15305","PMM2",556700000,520680000,542550000,408670000,513340000,355486000,484080000,501170000,396480000,477690000,467140000,376930000,472010000,355900000,300856000,353550000,352480000,359880000
"O15321","TM9SF1",39260000,34099000,71025000,58160000,NA,30891000,NA,NA,27764000,33322000,59075000,90344000,75787000,28424000,61912000,93365000,60233000,61617000
"O15327","INPP4B",72658000,82835000,85459000,170484000,146049000,113825000,282953000,269134000,325349000,651460000,617520000,513720000,911430000,966850000,1054450000,1235390000,1279930000,1485300000
"O15344","MID1",8853600,12508400,23646200,18776800,15440900,NA,28827700,20019700,29213900,31484400,31729800,8713300,15512300,5305600,13005300,10527400,13128100,8273100
"O15347","HMGB3",777500000,912850000,1194880000,1107520000,1165660000,1096560000,1208660000,1400310000,1220670000,1054050000,1123680000,986220000,753980000,639710000,646190000,575740000,498230000,528050000
"O15355","PPM1G",1194020000,1102280000,1098780000,973510000,1029850000,995890000,977770000,879310000,912910000,830880000,775700000,767320000,640920000,656350000,524680000,469130000,489180000,618150000
"O15357;Q7Z7G1","INPPL1",1089080000,896630000,839270000,1310850000,1218260000,1061330000,2197650000,2067440000,2198960000,3024910000,3085170000,2866620000,4409800000,4439400000,4437700000,5446900000,5413400000,5268300000
"O15371","EIF3D",3020070000,3.279e+09,3260700000,3.423e+09,3505300000,3194500000,2693510000,2647090000,2864440000,3046540000,2829280000,2944250000,2940680000,2858860000,3016940000,2917830000,2936300000,2838060000
"O15372","EIF3H",1140160000,1059360000,1116880000,1228960000,1313580000,1234880000,887470000,866410000,1036780000,948710000,869940000,946820000,893110000,1027170000,872790000,911150000,981170000,814090000
"O15382","BCAT2",277320000,263297000,312929000,298873000,197262000,296871000,375410000,363920000,331230000,346710000,408940000,441250000,338172000,413760000,473190000,328151000,444510000,417860000
"O15397","IPO8",147790000,123772000,136465000,154283000,131124000,153577000,143644000,151641000,157967000,159129000,155519000,181513000,145338000,152099000,143658000,120465000,124066000,82225000
"O15400","STX7",474380000,740870000,811420000,628120000,369980000,737360000,568950000,562210000,493210000,534340000,562630000,553590000,626510000,584930000,493030000,631100000,645570000,568210000
"O15427","SLC16A3",3459900000,3145800000,2959130000,3005520000,3700900000,2957750000,2686290000,2080670000,2251270000,1708770000,1673140000,1362680000,1226330000,1194980000,1171910000,1135880000,1110830000,1270600000
"O15439","ABCC4",69912000,32717000,70789000,73242000,94874000,110229000,134804000,128336000,133541000,137683000,130824000,158832000,60853000,78283000,120199000,NA,56446000,NA
"O15446","CD3EAP",293854000,183144000,239346000,268451000,279259000,219035000,238620000,236930000,224197000,277293000,232659000,44225000,243484000,178059000,123495000,224396000,168431000,227196000
"O15460","P4HA2",3886500000,4110500000,3954300000,7195900000,6828400000,7188200000,7986600000,8179400000,8075900000,8146300000,8.093e+09,7664400000,8556800000,8243300000,8.866e+09,9750100000,10043200000,10024800000
"O15484","CAPN5",66561000,29236000,60013000,46993000,74856000,NA,80982000,46257000,109911000,73389000,36986000,NA,NA,NA,NA,NA,NA,NA
"O15498","YKT6",1125350000,1034760000,1231300000,1059740000,1018550000,967480000,983700000,1035620000,953330000,964380000,1022160000,991020000,979690000,939820000,978200000,1024840000,966730000,977780000
"O15511","ARPC5",5071300000,4486700000,4862800000,4266900000,3487400000,4001800000,3837500000,3834500000,3664600000,2954650000,3.35e+09,3456880000,2691090000,3034440000,2827990000,2350070000,2620430000,2063090000
"O15523","DDX3Y",302663000,251999000,273804000,285447000,313307000,349780000,292755000,294132000,286671000,301966000,267846000,297677000,270969000,249428000,252611000,231376000,213494000,251613000
"O15533","TAPBP",270365000,222568000,217725000,283477000,382410000,226056000,453190000,386770000,375620000,499550000,491140000,345884000,460240000,352580000,322430000,356800000,330873000,391870000
"O43143","DHX15",3968400000,3797300000,3557400000,3460700000,3740200000,3402700000,3.565e+09,3638700000,3635500000,3076380000,3202200000,3170700000,2615630000,2776870000,2802210000,2618240000,2456940000,2409780000
"O43148","RNMT",208407000,233321000,196712000,189201000,220564000,85426000,305397000,265540000,332579000,318860000,291101000,212220000,256740000,107930000,143144000,NA,162089000,172536000
"O43150","ASAP2",1219630000,1300260000,1356430000,1406150000,1534890000,1437940000,1218870000,1239940000,1122210000,1016580000,1076710000,912210000,700470000,578200000,686180000,534570000,468090000,543440000
"O43156","TTI1",48509000,37455000,45767000,37418000,43957000,51776000,39622000,34749400,22231000,27467100,30784200,9352600,19000700,28875600,24960100,20468800,24134300,23261100
"O43159","RRP8",NA,NA,NA,28924000,NA,NA,74188000,44439000,30322000,122794000,NA,26464000,NA,58472000,NA,NA,NA,NA
"O43164","PJA2",95778000,141254000,167190000,152637000,171023000,206947000,188245000,216162000,179179000,354077000,339528000,301667000,345900000,319695000,299617000,208632000,267950000,314042000
"O43166","SIPA1L1",22873000,30357000,76955000,71139000,42144000,18381000,40490000,17673000,23661000,11963000,NA,NA,17158000,20888000,18071000,15746000,NA,63226000
"O43169","CYB5B",640070000,742810000,740160000,900860000,603980000,925140000,5.64e+08,715840000,701180000,691080000,762080000,951950000,842810000,1250810000,1190460000,1345030000,1407560000,1098260000
"O43172","PRPF4",483450000,511990000,496860000,497240000,398920000,487720000,558930000,518690000,496420000,454620000,530740000,470240000,368050000,446120000,427770000,341870000,316903000,339610000
"O43175","PHGDH",4292600000,4252800000,4380400000,3740400000,4002200000,3837800000,4573100000,4573900000,4231900000,4185300000,4187300000,3862400000,4551600000,4494200000,4195500000,5225300000,5369600000,5153300000
"O43181","NDUFS4",242437000,200514000,219854000,189628000,217751000,194939000,261313000,243634000,244721000,279268000,259976000,234961000,253181000,221754000,249626000,220615000,193064000,223401000
"O43237","DYNC1LI2",1407220000,1611700000,1642310000,1523980000,1616090000,1733430000,1518160000,1450450000,1506030000,1528620000,1474690000,1755160000,1548640000,1742240000,1849280000,1766830000,1796790000,1754260000
"O43242","PSMD3",4369300000,4167500000,4002600000,4452200000,4318300000,4301300000,4399700000,4331300000,4500400000,4302200000,4364900000,4439200000,4640200000,4676300000,4621400000,4941500000,4865800000,4715100000
"O43251;A6NFN3","RBFOX2",359293000,430460000,386700000,267154000,270704000,253674000,578060000,639230000,511540000,632110000,535330000,530200000,613680000,596880000,503220000,467680000,505830000,647700000
"O43252","PAPSS1",2372710000,2310710000,2105750000,2175350000,2261720000,2134880000,1943780000,2408740000,1907700000,1939890000,1.666e+09,1638330000,1238740000,1012400000,1046080000,1002680000,1001730000,1020280000
"O43264","ZW10",532350000,556560000,5.73e+08,520040000,463130000,595800000,416290000,392050000,416640000,380250000,355260000,381460000,354690000,333650000,396050000,334340000,333630000,303676000
"O43290","SART1",842520000,763690000,803420000,780670000,768110000,626140000,869780000,832580000,809550000,915440000,784710000,719600000,754550000,705550000,645240000,582140000,602250000,637340000
"O43292","GPAA1",74195000,NA,30333000,132485000,116557000,119510000,74457000,NA,111475000,32596000,86188000,56952000,91493000,66364000,59455000,85641000,105611000,38230000
"O43293","DAPK3",79694000,82597000,1.26e+08,34600000,79223000,26028000,35822000,80938000,70409000,77096000,77123000,72783000,87513000,NA,87997000,77811000,122894000,98697000
"O43294","TGFB1I1",1.143e+09,1135550000,1017850000,861830000,938590000,941990000,603490000,546730000,579810000,544040000,552540000,592930000,614020000,719320000,640700000,715770000,869570000,749280000
"O43301","HSPA12A",137540000,NA,597970000,586300000,424020000,502610000,174290000,652960000,NA,725400000,757390000,664880000,854040000,891560000,609260000,1134550000,853760000,1381410000
"O43309","ZSCAN12",32147300,9401300,11993000,19926300,8804400,15045400,NA,8980700,27076100,17367500,9893500,24135300,7063800,17746000,16442500,7564800,12953800,NA
"O43310","CTIF",NA,NA,NA,25062000,NA,NA,NA,NA,NA,18613000,NA,NA,21267000,28864000,102303000,63907000,87606000,NA
"O43318","MAP3K7",117258000,109141000,115251000,127238000,161125000,121411000,108070000,105257000,94983000,118310000,107883000,90698000,113771000,88737000,83479000,88874000,81891000,63114000
"O43324","EEF1E1",928510000,912920000,878250000,707100000,649360000,599770000,761130000,789490000,675810000,694100000,711520000,666370000,651520000,611490000,628780000,709360000,677120000,673550000
"O43390","HNRNPR",4502100000,4.684e+09,4361300000,4398900000,4745200000,4281400000,5317200000,5230400000,5229700000,5426800000,5194800000,5.355e+09,4982500000,4509700000,4723700000,4409800000,4427300000,4315700000
"O43395","PRPF3",373400000,378010000,402190000,383430000,359420000,400150000,330331000,433390000,455740000,379850000,405180000,345701000,323734000,343270000,334312000,315633000,305497000,301110000
"O43396","TXNL1",2885310000,2596250000,2700490000,2810600000,2867380000,2563620000,2552560000,2777600000,2473030000,2872970000,2841260000,2291030000,2572590000,2372450000,2400460000,2053530000,2085430000,2166560000
"O43399","TPD52L2",4408500000,4508500000,4733900000,3813300000,4.001e+09,3777400000,2670830000,2867150000,2535340000,2910510000,2806820000,2517370000,2868890000,2654680000,2401030000,3011580000,2869770000,2857780000
"O43402","EMC8",90689000,146674000,42195000,NA,NA,NA,NA,NA,49128000,50116000,NA,78745000,84904000,NA,NA,119658000,NA,58183000
"O43414","ERI3",69427000,NA,NA,NA,NA,62149000,61744000,NA,NA,36747000,31373000,50805000,88552000,NA,111934000,72838000,NA,74571000
"O43432","EIF4G3",525890000,521430000,477190000,563900000,647330000,562940000,574390000,560710000,461120000,538880000,535870000,501090000,563190000,569580000,518090000,533270000,559190000,523440000
"O43447","PPIH",196232000,220342000,212236000,154902000,175290000,178750000,231146000,244945000,232808000,194605000,224180000,182356000,185872000,169436000,179833000,163532000,144285000,153717000
"O43464","HTRA2",145996000,58904000,89963000,71836000,112021000,32051000,95766000,31675000,100603000,135578000,71863000,131547000,114986000,122014000,162503000,133462000,130121000,104385000
"O43488;Q8NHP1;O95154","AKR7A2",1563460000,1644390000,1619950000,1955920000,2073200000,1944820000,2466160000,2.306e+09,2332890000,2267790000,2298820000,2257060000,2093710000,2296750000,2214080000,2223630000,2434810000,2053680000
"O43491;Q9Y2J2","EPB41L2",2864200000,2839940000,2757920000,2597650000,2986180000,2545590000,2684700000,2673700000,2468840000,2532030000,2390790000,2044280000,1836250000,1578570000,1517840000,1524280000,1408660000,1516590000
"O43493","TGOLN2",185659000,229862000,294633000,203361000,210013000,230926000,137929000,146535000,159805000,127427000,121681000,170464000,122994000,109297000,108554000,127001000,103580000,90826000
"O43504","LAMTOR5",1146500000,1140730000,1168480000,1132240000,1159770000,1003940000,955030000,892110000,920650000,943020000,974230000,849800000,1041370000,899200000,871540000,1021910000,958170000,1026200000
"O43516","WIPF1",143294000,151214000,161581000,132416000,88579000,158714000,137477000,145611000,103061000,163820000,149323000,168017000,151930000,146740000,200754000,73555000,142838000,40190000
"O43524","FOXO3",31881000,NA,NA,NA,50817000,73495000,60417000,36433000,34178000,39130000,15065000,NA,NA,NA,NA,NA,NA,NA
"O43583","DENR",866860000,951520000,1049840000,1195780000,950750000,995840000,1200420000,1166520000,1109770000,1150860000,1043790000,1135650000,1081110000,1081920000,1095640000,1169180000,1040250000,1117490000
"O43592","XPOT",968770000,1015780000,875300000,1054490000,1169640000,1007190000,1005880000,1003480000,949850000,935520000,941670000,1139870000,968430000,947260000,1157090000,1133360000,1096900000,1116210000
"O43598","DNPH1",NA,NA,50634000,49392000,113479000,42348000,51132000,43061000,33220000,111829000,NA,111437000,42382000,103476000,108666000,46040000,85974000,108586000
"O43615","TIMM44",1031160000,985340000,1005630000,987470000,1.019e+09,929180000,1299640000,1317960000,1259950000,1433760000,1396870000,1384020000,1458640000,1473040000,1421720000,1576890000,1603710000,1567070000
"O43617","TRAPPC3",243466000,314443000,334610000,279328000,265420000,333760000,275634000,260025000,303707000,221452000,236065000,242284000,117513000,223319000,222820000,221339000,215655000,195661000
"O43633","CHMP2A",649310000,617780000,558200000,695010000,702570000,588300000,606470000,618420000,587170000,802110000,712080000,770960000,699680000,658480000,645990000,659640000,580010000,603530000
"O43660","PLRG1",793040000,640870000,631080000,654080000,856530000,618210000,685480000,743900000,692450000,772770000,745190000,650320000,646410000,585840000,591460000,548240000,580300000,611530000
"O43670","ZNF207",1285560000,1201050000,1184460000,1062870000,1263800000,894870000,1213740000,1239300000,1162180000,1233740000,1198510000,1050100000,1063710000,830570000,765410000,761640000,729440000,931920000
"O43676","NDUFB3",100330000,59244000,50388000,216754000,70650000,133478000,334600000,293211000,261056000,342790000,366740000,217049000,342010000,286725000,218163000,312119000,290047000,331600000
"O43678","NDUFA2",181185000,224225000,237810000,213809000,126055000,191223000,229710000,209062000,223944000,157472000,257149000,230107000,246768000,167963000,216121000,253485000,262939000,254453000
"O43681","ASNA1",2092320000,2422620000,2299490000,2350590000,2202540000,2427920000,2764090000,2652040000,2646090000,2769420000,2773740000,2713950000,2479040000,2643560000,2630400000,2451670000,2527560000,2389440000
"O43684","BUB3",2061860000,1974340000,1934460000,1661010000,2018890000,1675040000,1640340000,1705210000,1777580000,1762720000,1581390000,1700610000,1247090000,1278380000,1239150000,1069380000,1193650000,1179950000
"O43707","ACTN4",7.1309e+10,6.7995e+10,6.9962e+10,6.4996e+10,6.7401e+10,6.3742e+10,6.999e+10,7.3245e+10,6.7668e+10,6.9443e+10,6.9106e+10,6.21e+10,6.0226e+10,5.8632e+10,5.7174e+10,5.5017e+10,5.321e+10,6.0007e+10
"O43708","GSTZ1",NA,17793000,20087000,32768000,66654000,36295000,57116000,45180000,67411000,40838000,43418000,46973000,42611000,66491000,54057000,82673000,81835000,63040000
"O43719","HTATSF1",293303000,265128000,311181000,295958000,314557000,300646000,336359000,336190000,303370000,346150000,276789000,287590000,344750000,311747000,260882000,272365000,323038000,318950000
"O43747","AP1G1",1963710000,1884550000,1820090000,2019760000,2107460000,1807850000,1759380000,1787070000,1952500000,1795340000,1688240000,1524130000,1793010000,1561470000,1638610000,1760590000,1667620000,1837080000
"O43765","SGTA",1438030000,1362600000,1567030000,1968680000,1963780000,1834910000,1980010000,1969700000,1774990000,2022570000,1922340000,2044230000,1943200000,1882340000,2229750000,2445290000,2172790000,2085250000
"O43768","ENSA",333701000,360210000,381850000,386030000,498650000,451600000,367560000,333500000,357800000,285853000,294402000,313212000,293523000,339040000,293573000,340157000,348730000,345110000
"O43776","NARS",4567100000,4871100000,4633600000,4.718e+09,4579800000,4365800000,4494100000,4636100000,4709600000,5002800000,5114900000,5102600000,5525100000,5314200000,5642200000,6068400000,6131100000,6203600000
"O43795","MYO1B",2691150000,2693530000,2632300000,2652510000,2645380000,2515870000,2986640000,2922360000,2781530000,2551220000,2650840000,2333840000,2042210000,1668240000,1717610000,1735110000,1578450000,1830540000
"O43809","NUDT21",2118570000,2019600000,2118760000,1608080000,1924610000,1472260000,2409190000,2297050000,2238240000,2304480000,2245610000,1788140000,1795070000,1591240000,1610200000,1561010000,1354980000,1675640000
"O43813","LANCL1",556490000,626880000,608120000,752880000,644950000,678890000,944210000,900800000,918310000,985280000,859200000,946890000,758020000,846540000,902330000,710710000,732820000,759400000
"O43815","STRN",849320000,763110000,698520000,738370000,812860000,733450000,690190000,837250000,6.83e+08,618430000,720530000,604030000,571180000,573740000,667300000,643930000,591580000,636880000
"O43818","RRP9",347530000,282365000,339440000,262853000,291707000,276946000,262835000,330020000,269299000,286321000,293264000,323993000,270164000,176582000,207525000,239559000,191709000,230800000
"O43823","AKAP8",163338000,170255000,134979000,93292000,168973000,102574000,181663000,195687000,178498000,163348000,168227000,172792000,163983000,88397000,161058000,108507000,77817000,139649000
"O43837","IDH3B",461920000,385420000,388111000,528040000,630960000,552430000,541530000,526270000,521180000,692560000,752710000,776030000,627320000,681010000,8.08e+08,670350000,545760000,638120000
"O43847","NRD1",1672610000,1444620000,1478050000,1344980000,1420740000,1332520000,1247090000,1179550000,1182040000,1290470000,1185850000,1261040000,1116190000,1214250000,1311040000,1284640000,1172930000,1397190000
"O43852","CALU",12355800000,11741800000,12362300000,14872600000,14709700000,15355500000,13466700000,13962100000,13157100000,12375700000,12745800000,13684600000,11690200000,1.3148e+10,13295900000,12683800000,12851200000,12439200000
"O43854","EDIL3",234794000,293489000,295039000,362750000,270833000,291567000,205052000,102964000,NA,197547000,153988000,160369000,298960000,273654000,307523000,357230000,386290000,338653000
"O43865","AHCYL1",429600000,418760000,412430000,434940000,590810000,501920000,463270000,522950000,428530000,513390000,423810000,422054000,344690000,342675000,400070000,195385000,311114000,181002000
"O43920","NDUFS5",247951000,251320000,285508000,221625000,230416000,222214000,348712000,380300000,306789000,335890000,353360000,280864000,356960000,338692000,309432000,367455000,407820000,431070000
"O43924","PDE6D",105714000,109008000,95723000,36274000,58673000,56383000,62684000,57376000,102493000,NA,32734000,51934000,30076000,26518000,NA,84741000,27146000,29922000
"O60216","RAD21",338060000,332690000,358610000,365810000,331831000,375990000,364870000,421220000,434480000,385991000,420820000,415550000,264215000,284836000,307573000,257465000,248844000,252481000
"O60231","DHX16",95252000,149871000,129584000,152201000,43840000,134057000,126141000,34826000,41031000,34358000,122173000,87239000,80466000,40443000,37113000,NA,NA,NA
"O60232","SSSCA1",209032000,205709000,256516000,227961000,202306000,158893000,159417000,105765000,135344000,241838000,197043000,182179000,209208000,188743000,128090000,300616000,260087000,262169000
"O60237","PPP1R12B",69240000,85443000,NA,NA,41328000,NA,62961000,91450000,99699000,367810000,342520000,325040000,757480000,7.12e+08,593710000,737970000,657220000,905970000
"O60238","BNIP3L",24836000,50082000,88294000,22970000,45687000,18570000,NA,15603000,NA,NA,NA,NA,NA,NA,NA,NA,NA,NA
"O60256","PRPSAP2",625370000,546950000,593480000,602800000,615160000,516480000,544470000,511750000,552400000,536740000,501860000,546830000,486760000,473080000,498310000,460930000,406410000,512990000
"O60264","SMARCA5",895020000,838180000,844150000,850030000,937090000,742630000,815530000,728290000,739390000,712830000,616750000,615520000,509780000,447980000,447720000,441800000,379043000,387669000
"O60271","SPAG9",2368370000,2012160000,2038030000,2216090000,2.383e+09,2137870000,1925040000,1749340000,1857850000,1805540000,1826180000,1561730000,1862890000,1.689e+09,1597160000,1683320000,1586390000,1666080000
"O60279","SUSD5",56850000,NA,NA,105889000,73114000,99214000,146910000,118380000,85512000,143068000,133081000,103156000,109524000,68845000,71471000,94225000,NA,NA
"O60292","SIPA1L3",123225000,84076000,76632000,NA,108435000,29657000,NA,NA,NA,10748000,9133200,NA,NA,NA,NA,NA,NA,NA
"O60306","AQR",87974000,163782000,104524000,113802000,96450000,81060000,127611000,136562000,140691000,127722000,33402000,77876000,65596000,90664000,72029000,50421000,43635000,67353000
"O60313","OPA1",1079940000,1323860000,1238900000,1159560000,1144020000,1167010000,1539870000,1538380000,1433240000,1567710000,1587770000,1.528e+09,1635580000,1474330000,1456820000,1413170000,1507350000,1583870000
"O60333;Q12756","KIF1B",288794000,139285000,247087000,299946000,286281000,304256000,309660000,317570000,314180000,359770000,369500000,334275000,320648000,311474000,309157000,263346000,285078000,248395000
"O60341","KDM1A",73624000,121423000,106239000,149572000,100316000,204027000,144385000,131953000,146005000,98708000,144682000,161287000,132343000,124316000,121282000,109413000,92850000,57658000
"O60437","PPL",NA,17902000,NA,NA,NA,NA,594540000,620650000,584210000,987640000,1132720000,1032430000,605940000,601480000,628160000,392270000,383660000,392850000
"O60443","DFNA5",637080000,523590000,539160000,668760000,724810000,677920000,762260000,644090000,795990000,653810000,689340000,736500000,582370000,574710000,579480000,555020000,555190000,590880000
"O60488","ACSL4",588430000,564460000,530010000,653770000,599920000,600880000,357516000,356630000,478010000,347500000,371857000,411100000,463650000,458190000,505460000,598330000,586090000,528210000
"O60493","SNX3",1690850000,1679710000,1591580000,1582960000,1475290000,1480630000,1752390000,1663400000,1598270000,1406850000,1593730000,1304120000,1406520000,1400570000,1233970000,1349870000,1175270000,1386540000
"O60502","MGEA5",190387000,226526000,239958000,208952000,211076000,216085000,173254000,162930000,185196000,152933000,157962000,180692000,118540000,138324000,177983000,142037000,136615000,142912000
"O60504","SORBS3",167608000,159840000,194586000,208932000,194568000,205447000,240067000,97753000,111197000,200226000,192016000,181785000,40357000,144183000,160140000,126163000,138800000,41912000
"O60506","SYNCRIP",13612700000,14252400000,15013100000,1.43e+10,15265600000,13618100000,13610100000,1.4207e+10,13431400000,13243800000,1.3298e+10,12437700000,12674800000,11563900000,11618100000,11838700000,10979200000,11471700000
"O60518","RANBP6",258931000,129744000,62716000,133760000,159165000,266936000,231736000,237359000,234273000,261863000,222559000,NA,204068000,262249000,47560000,171420000,148752000,212530000
"O60524","NEMF",166160000,194343000,181250000,174452000,180631000,169199000,150342000,145496000,166013000,141837000,171346000,161243000,53225000,157653000,160177000,139345000,100650000,94143000
"O60547","GMDS",74828000,62206000,45287000,50890000,90414000,31606000,76322000,92103000,46138000,96538000,95350000,55576000,115088000,97290000,62453000,61620000,96814000,119277000
"O60551","NMT2",141059000,88173000,NA,NA,NA,31242000,NA,41662000,38578000,30785000,37560000,NA,NA,NA,NA,NA,NA,NA
"O60563","CCNT1",25784600,25193300,NA,18556300,8382400,31958600,33714600,NA,10446000,16969800,25026000,NA,8649300,9523200,15345400,8629000,17613600,9121800
"O60568","PLOD3",1016410000,1099730000,1135970000,986560000,987030000,1029970000,778510000,813400000,780510000,623960000,631260000,766950000,601730000,661230000,788410000,684740000,828120000,664550000
"O60573","EIF4E2",292546000,258919000,279854000,264594000,275753000,216817000,260709000,205377000,246654000,268562000,242867000,223583000,289321000,308875000,281748000,242286000,331313000,270955000
"O60610","DIAPH1",1371800000,1327470000,1454750000,1366450000,1386490000,1389860000,1244260000,1200490000,1152670000,873720000,948280000,931540000,783470000,783620000,709820000,672390000,846400000,823620000
"O60613","SEP15",53575000,158290000,64111000,209570000,NA,121053000,202746000,200182000,227018000,129634000,172218000,45895000,NA,47746000,NA,49094000,70563000,81819000
"O60637","TSPAN3",26493000,77511000,NA,35363000,66970000,34975000,105257000,57751000,59568000,214456000,78075000,NA,258532000,107340000,94155000,129870000,228549000,139873000
"O60645","EXOC3",355258000,379710000,394410000,358320000,356870000,372910000,355060000,356690000,368430000,367770000,369300000,391200000,316600000,369970000,380660000,403320000,375730000,328035000
"O60662","KLHL41",2678910000,2439530000,2183910000,4085300000,3438100000,3562200000,6541300000,7026200000,7354300000,16938900000,16362900000,17031200000,27452500000,26504900000,2.5913e+10,2.897e+10,27611500000,28327800000
"O60664","PLIN3",7850200000,8006100000,8240700000,12389700000,12190400000,12536100000,1.2017e+10,11289200000,11982400000,11617200000,1.2005e+10,11732500000,14165900000,14137700000,1.423e+10,16328400000,16969200000,16199600000
"O60678","PRMT3",56873000,18147000,19563000,18923000,79182000,NA,NA,NA,NA,NA,19125000,NA,NA,NA,25590000,NA,NA,11811000
"O60684","KPNA6",753630000,723950000,770380000,745740000,812800000,781230000,715020000,683440000,713850000,728330000,770460000,709900000,741090000,730660000,748440000,638730000,6.85e+08,671020000
"O60701","UGDH",4682900000,4953300000,4839100000,4517200000,4330600000,4217100000,4157300000,3990700000,4159600000,3824100000,3860500000,3.623e+09,3.35e+09,3.48e+09,3624400000,3.353e+09,3355100000,3285400000
"O60711","LPXN",1033120000,900310000,886470000,835320000,883330000,837480000,963060000,991700000,975500000,728710000,717770000,639840000,532700000,532500000,520430000,384123000,404290000,352680000
"O60716","CTNND1",3031760000,2795770000,2737710000,2662500000,3107590000,2742040000,3000590000,2803550000,2875900000,3430100000,3423200000,3203900000,3553600000,3217300000,3389400000,3236300000,3045340000,3190700000
"O60739","EIF1B",74974000,117043000,111310000,101778000,102942000,116186000,23979000,26027000,77752000,94241000,104074000,135694000,117790000,113417000,119243000,122188000,134390000,93918000
"O60749","SNX2",694070000,700610000,644440000,608350000,691860000,587900000,756880000,753310000,699110000,750060000,708500000,640280000,652270000,648490000,627380000,613590000,683790000,643510000
"O60762","DPM1",567270000,674570000,637440000,749210000,658370000,803640000,629450000,640870000,660420000,655570000,660850000,727380000,514150000,571610000,672690000,577060000,526490000,536660000
"O60783","MRPS14",173278000,148138000,140823000,121167000,150271000,128141000,199679000,188825000,168758000,219028000,221538000,156550000,211284000,159689000,161077000,169541000,182309000,181822000
"O60784","TOM1",579030000,626480000,611800000,830250000,840220000,780590000,1772630000,1972890000,1918420000,2831990000,2815770000,2558870000,2809480000,2962500000,2735490000,2752930000,2685930000,2764330000
"O60826","CCDC22",463010000,395140000,438740000,358640000,387670000,368148000,387140000,461110000,408210000,407020000,401640000,326494000,380030000,420090000,399560000,405300000,449260000,424250000
"O60828","PQBP1",282340000,315840000,344110000,286509000,265457000,289133000,306540000,312830000,274533000,293290000,298664000,310143000,279925000,309267000,285128000,205040000,251075000,229097000
"O60831","PRAF2",121350000,146720000,53811000,389210000,151130000,424710000,NA,294070000,NA,249132000,321800000,222300000,135720000,110680000,115350000,NA,NA,NA
"O60832","DKC1",1279280000,1399090000,1317230000,1422780000,1313220000,1336100000,1613320000,1732430000,1756960000,1758680000,1747650000,1618820000,1521910000,1504750000,1494140000,1398300000,1482770000,1509700000
"O60841","EIF5B",3250800000,3244400000,3347200000,3072880000,3420100000,2758390000,2560430000,2557040000,2572420000,2958040000,2682750000,2370050000,2979700000,2529090000,2562340000,2684100000,2416360000,2678370000
"O60869","EDF1",508052000,808890000,1023600000,658220000,417808000,722480000,741100000,910850000,680230000,651700000,626141000,703150000,637910000,764410000,593900000,530760000,718750000,633570000
"O60884","DNAJA2",1902770000,1819160000,1894820000,1967690000,2058930000,1844570000,2012110000,1799370000,1797400000,1946940000,1932300000,1989680000,2092360000,2045960000,1900860000,1990470000,2033260000,2017050000
"O60885","BRD4",116422000,62150000,107542000,27275000,61303000,15062000,43788000,132757000,40741000,113146000,104862000,NA,49362000,75523000,NA,19876000,34943000,24582000
"O60888","CUTA",1232370000,1046160000,1195930000,1217190000,1192370000,1437400000,1127130000,1295350000,1242250000,1157050000,1127410000,1347180000,984810000,1198410000,1309260000,1097310000,1345030000,959950000
"O60890","OPHN1",NA,NA,19480000,18080000,26129000,NA,56621000,32162000,NA,28235000,NA,NA,32181000,44892000,53870000,51917000,96875000,NA
"O60925","PFDN1",991330000,870340000,905800000,853520000,701400000,750800000,879350000,756170000,777670000,691370000,797200000,632160000,821170000,624640000,627220000,958900000,710290000,869340000
"O60934","NBN",161642000,146884000,71745000,110773000,79599000,120475000,148004000,148948000,127648000,163731000,155317000,84715000,154794000,77985000,119307000,72011000,31495000,NA
"O60936","NOL3",337210000,364020000,408440000,498290000,457840000,419910000,447800000,500480000,401750000,434710000,476840000,383220000,430030000,403470000,411920000,554810000,494330000,514590000
"O75044;P0DMP2;P0DJJ0","SRGAP2",37942000,NA,39167000,53265000,119490000,111901000,NA,45574000,124140000,77538000,66405000,44923000,42554000,174317000,128629000,117705000,191703000,57681000
"O75063","FAM20B",NA,NA,NA,NA,NA,NA,NA,NA,NA,35605000,NA,NA,113924000,194909000,189576000,57631000,59489000,196377000
"O75083","WDR1",26801600000,25731200000,24981600000,25361900000,29398500000,26213600000,22187700000,23911300000,24503800000,25113600000,24179700000,22182700000,20724100000,1.8613e+10,2.0341e+10,1.8343e+10,17580400000,18670500000
"O75112","LDB3",NA,NA,NA,NA,NA,NA,52909000,90079000,106496000,936220000,7.85e+08,927550000,2958180000,3441200000,3639500000,5355300000,6245200000,5539400000
"O75113","N4BP1",40719000,NA,56230000,120957000,37009000,81842000,35604000,52454000,125982000,90224000,90522000,99482000,75559000,94012000,112375000,35634000,92525000,99192000
"O75116","ROCK2",1955680000,1903500000,1849770000,1995170000,2020910000,1865160000,1865390000,1848570000,1860280000,1805300000,1679280000,1626540000,1531650000,1462490000,1497490000,1223980000,1214560000,1298320000
"O75122","CLASP2",440150000,537310000,519530000,441870000,458930000,488250000,582110000,610810000,556150000,465770000,548670000,4.84e+08,473680000,492020000,472260000,438260000,465710000,471020000
"O75131;Q96A23;Q9UBL6","CPNE3",2294550000,2376700000,2298500000,2156420000,2293210000,2242510000,2385950000,2481640000,2424540000,2415070000,2464460000,2270390000,2013460000,1862940000,2000850000,1650030000,1591140000,1656010000
"O75147","OBSL1",133583000,NA,87166000,79472000,33434000,NA,130453000,20693000,128186000,210065000,287006000,325544000,697670000,695790000,622540000,780020000,874490000,907080000
"O75150","RNF40",317789000,290727000,266006000,248456000,346645000,202888000,171318000,148368000,196477000,241874000,227821000,180377000,163382000,59233000,NA,120149000,45024000,169724000
"O75153","CLUH",705510000,685620000,707180000,706830000,773520000,682790000,451140000,436860000,486130000,667570000,636180000,712620000,810620000,801020000,982570000,735760000,734170000,647380000
"O75155","CAND2",NA,NA,NA,NA,NA,NA,NA,NA,NA,159915000,181533000,167279000,282712000,277486000,327508000,238977000,236118000,244157000
"O75157","TSC22D2",132661000,135405000,142946000,78473000,163880000,87252000,93459000,123881000,41053000,96753000,92247000,58982000,104432000,40065000,33445000,123556000,56700000,93255000
"O75165","DNAJC13",1497640000,1410460000,1390280000,1334800000,1441390000,1346100000,1475140000,1337450000,1397790000,1353590000,1365690000,1359840000,1264130000,1283470000,1354670000,1258530000,1300030000,1294670000
"O75170","PPP6R2",82846000,NA,NA,39830000,96815000,97603000,NA,41541000,28248000,84655000,122326000,92463000,97254000,39464000,77375000,68704000,38094000,113865000
"O75175","CNOT3",217431000,NA,83229000,36118000,46527000,106361000,54354000,116144000,NA,36997000,NA,57657000,145877000,160744000,75312000,127849000,145057000,126709000
"O75179","ANKRD17",296067000,263108000,329890000,270150000,252992000,263302000,206595000,201249000,222376000,257214000,234376000,247841000,239059000,223873000,211621000,204999000,187189000,213161000
"O75190;Q8WWF6;Q8NHS0","DNAJB6",333590000,286610000,244066000,221107000,218014000,196905000,187024000,193506000,154809000,254209000,236491000,199934000,397660000,400130000,272441000,322791000,334826000,405656000
"O75208","COQ9",25963000,NA,NA,15823000,17653000,NA,28910000,130351000,24232000,141631000,161852000,152706000,213813000,143815000,160553000,186369000,161363000,241804000
"O75223","GGCT",165290000,178507000,195643000,171181000,164369000,101982000,181117000,179181000,152321000,144020000,173178000,114445000,139847000,121918000,77269000,160733000,152504000,166102000
"O75298","RTN2",99557000,125731000,234528000,341240000,280315000,369520000,848720000,903830000,869780000,759820000,767410000,745850000,756340000,775720000,751970000,944500000,948250000,874310000
"O75306","NDUFS2",8.86e+08,828050000,783840000,737770000,791920000,683320000,1010490000,1113040000,963130000,1194220000,1063790000,1096670000,1162640000,1028670000,1075030000,1058160000,1141780000,1130380000
"O75312","ZPR1",568760000,593460000,602240000,510320000,523120000,487580000,381050000,338730000,346170000,402370000,345540000,358300000,348470000,301955000,382800000,329622000,304502000,289401000
"O75323","GBAS",342940000,199958000,152360000,375400000,140700000,332370000,596250000,579570000,519850000,610550000,636010000,541530000,592460000,620470000,519070000,662010000,466550000,614490000
"O75326","SEMA7A",258076000,280072000,281893000,331670000,312494000,343990000,NA,NA,NA,NA,NA,NA,NA,NA,NA,NA,129162000,NA
"O75340","PDCD6",728210000,684470000,728660000,728220000,811560000,600530000,825910000,857440000,822870000,911220000,818140000,802480000,768040000,657810000,737900000,693200000,667770000,752290000
"O75347","TBCA",4144500000,4375800000,4.707e+09,5849500000,6403400000,5636600000,5.825e+09,5643300000,5236100000,5564200000,5637300000,4535100000,6098600000,5466100000,4863200000,5957900000,5353600000,5738200000
"O75348","ATP6V1G1",462760000,373400000,463570000,250170000,533430000,427060000,252400000,536720000,370270000,527570000,196840000,355850000,406980000,305596000,341380000,516740000,425410000,187161000
"O75351;Q6PIW4","VPS4B",1900860000,2002970000,2076370000,1870770000,1847290000,1862430000,1875790000,1803970000,1752810000,1581260000,1617480000,1537400000,1296800000,1253350000,1214590000,1059530000,1083960000,1075610000
"O75352","MPDU1",626220000,571960000,594900000,811330000,568810000,802550000,627030000,513490000,650750000,440370000,502590000,631300000,485350000,549780000,569540000,501820000,492180000,403540000
"O75367","H2AFY",2765270000,2709780000,2865520000,3559200000,3318600000,3406400000,5175400000,5129600000,5.172e+09,4958800000,5247100000,4797700000,4831100000,4403200000,4392800000,4.368e+09,4191800000,4.387e+09
"O75368","SH3BGRL",1583030000,1701890000,1744610000,2230160000,2674370000,2227840000,2928240000,3048220000,2577800000,2769130000,2526090000,2594640000,2351420000,2049850000,1907340000,2322900000,1992650000,2126750000
"O75369","FLNB",5.014e+10,4.8209e+10,4.8234e+10,4.1353e+10,4.5545e+10,4.1343e+10,3.9905e+10,3.9186e+10,3.6881e+10,30105700000,29441300000,25726900000,1.7988e+10,17339400000,16742500000,11097700000,10989200000,11811200000
"O75380","NDUFS6",453970000,454920000,379460000,459450000,602400000,392040000,710030000,635370000,548250000,752240000,683140000,540290000,714880000,674050000,495090000,606060000,581320000,639060000
"O75381","PEX14",158665000,239074000,228504000,180474000,216349000,140994000,225792000,230558000,183661000,200090000,219131000,185704000,218906000,167121000,86933000,203875000,177996000,215414000
"O75390","CS",6599200000,6560900000,7332500000,6641100000,6.253e+09,6212300000,7.308e+09,7.066e+09,7464300000,7333100000,7386300000,7543200000,7239400000,7624800000,7171200000,6557700000,6966300000,6719300000
"O75391","SPAG7",199526000,196569000,264686000,199011000,202762000,225753000,225592000,191676000,221284000,218605000,245628000,202734000,216740000,192435000,162237000,174257000,140064000,196296000
"O75396","SEC22B",3290200000,3019270000,3111700000,3283700000,3715700000,3848400000,3251600000,2996400000,3144100000,2914350000,2797420000,3.13e+09,2565330000,2704190000,2774200000,2486790000,2627400000,2658930000
"O75400","PRPF40A",570300000,622920000,636380000,613260000,540270000,587380000,685200000,695430000,631640000,615080000,690880000,565390000,555770000,553210000,486330000,524480000,484620000,555100000
"O75410","TACC1",792150000,738170000,711350000,636220000,889770000,607920000,496820000,471460000,455090000,636150000,554510000,479640000,535280000,457680000,433500000,332270000,353300000,374904000
"O75427","LRCH4",84555000,27669000,96010000,81339000,107882000,89968000,89648000,97429000,82289000,76561000,102339000,52665000,56646000,26701000,NA,44637000,NA,80019000
"O75431","MTX2",169791000,287646000,271881000,302266000,135890000,287471000,348022000,259536000,376290000,167431000,286528000,397760000,256310000,407930000,368230000,315556000,383150000,353407000
"O75436","VPS26A",1947580000,2062370000,1933380000,1894880000,2109500000,1800280000,1752340000,1807340000,1781310000,1597280000,1651780000,1655140000,1476700000,1254370000,1513590000,1513070000,1511480000,1535870000
"O75438","NDUFB1",204088000,179122000,200200000,169910000,189746000,154757000,221817000,225423000,241917000,282883000,298848000,244414000,259635000,221933000,210583000,233393000,243757000,257839000
"O75439","PMPCB",1454110000,1334490000,1375540000,1192800000,1300280000,1241280000,1484730000,1484710000,1517160000,1534180000,1463560000,1555160000,1387470000,1585250000,1610420000,1409950000,1604430000,1291380000
"O75448","MED24",279190000,866570000,510560000,289690000,429960000,NA,NA,NA,NA,NA,NA,NA,117470000,371300000,NA,NA,NA,NA
"O75475","PSIP1",664980000,796700000,962930000,864730000,755810000,690470000,826380000,822190000,719380000,646920000,645810000,630360000,422020000,328576000,464230000,436950000,337570000,347852000
"O75477","ERLIN1",553740000,532870000,466860000,489050000,541830000,422510000,367880000,354290000,414290000,250173000,288635000,265288000,205230000,168715000,181815000,145418000,158520000,152937000
"O75489","NDUFS3",1143360000,1066910000,1065350000,996530000,980920000,987780000,1441980000,1390560000,1352280000,1358800000,1309420000,1282860000,1334540000,1276450000,1353630000,1330580000,1383240000,1276530000
"O75494;Q8WXF0","SRSF10",739290000,865090000,920170000,709950000,757020000,633110000,909490000,971560000,939790000,859420000,886230000,776120000,647270000,602490000,571570000,576610000,447750000,525060000
"O75503","CLN5",42417000,NA,82866000,45574000,72692000,35455000,88999000,109778000,131783000,139341000,NA,44404000,NA,32340000,NA,NA,NA,NA
"O75506","HSBP1",682040000,775430000,742580000,637080000,726570000,666410000,446990000,558650000,579020000,623850000,383120000,584130000,510350000,501740000,356650000,172620000,365330000,374640000
"O75521","ECI2",292547000,243525000,305513000,278158000,303930000,316986000,383100000,359170000,413470000,366060000,393360000,388130000,413660000,403800000,458450000,492180000,487110000,457360000
"O75525","KHDRBS3",177495000,176421000,210631000,165484000,190472000,153733000,273674000,248848000,219517000,208793000,210296000,163941000,150993000,135769000,136091000,153843000,152167000,154574000
"O75531","BANF1",5620200000,5280500000,5398500000,6303100000,5843600000,6576900000,6311700000,6755500000,7054300000,6395800000,6044700000,7073400000,6135400000,6925700000,6222300000,6682600000,7753200000,5991200000
"O75533","SF3B1",5192900000,5431700000,5192400000,5391200000,5387200000,5234800000,5.929e+09,5589200000,5904200000,5.431e+09,5575300000,5711200000,4953900000,5160800000,5354300000,4420600000,4167500000,4303500000
"O75534","CSDE1",3893600000,3915300000,3596900000,3258200000,3975900000,3120130000,2472850000,2498060000,2433160000,3212400000,3308070000,2896740000,3098790000,2781590000,2.864e+09,2574780000,2582840000,2764540000
"O75569","PRKRA",1301390000,1390350000,1383660000,1403840000,1586400000,1467860000,1706390000,1902210000,1529800000,1807990000,1811540000,1338230000,1833770000,1421940000,1515420000,1614790000,1406780000,1702810000
"O75578","ITGA10",333560000,223120000,NA,406560000,584160000,3.67e+08,457890000,147310000,313760000,NA,NA,NA,NA,NA,NA,NA,NA,NA
"O75607","NPM3",536260000,490290000,494410000,374170000,505900000,425270000,392103000,455810000,370240000,429810000,359770000,425360000,427850000,345420000,382440000,318846000,294389000,335559000
"O75608","LYPLA1",654730000,651150000,679640000,582310000,580370000,630480000,590390000,602090000,649740000,586680000,617670000,648180000,516720000,532670000,522910000,510250000,508020000,533330000
"O75629","CREG1",NA,NA,NA,NA,NA,NA,64136000,NA,65774000,63760000,66275000,101270000,53382000,NA,NA,NA,NA,NA
"O75643","SNRNP200",6396200000,6402500000,6057900000,6394100000,6402200000,6066100000,6894600000,6.516e+09,7087500000,6610600000,6688800000,6703100000,5.997e+09,5794800000,6158500000,5148500000,5207900000,5224100000
"O75663","TIPRL",364230000,366350000,327291000,481800000,4.56e+08,497160000,422540000,384030000,420410000,370480000,369760000,451720000,344342000,391040000,426970000,403180000,401780000,349510000
"O75674","TOM1L1",37137000,55396000,30487000,88281000,NA,69886000,58110000,30321000,42770000,NA,NA,30900000,NA,22291000,65822000,18772000,42952000,NA
"O75688","PPM1B",43642000,115143000,NA,NA,189007000,44083000,106861000,107848000,71492000,51504000,90442000,57046000,168728000,187885000,139492000,218545000,159877000,194734000
"O75691","UTP20",251933000,289364000,290010000,215099000,213236000,209753000,155931000,227763000,157496000,211690000,199181000,192897000,54480000,173052000,205651000,86292000,104222000,128667000
"O75694","NUP155",1045560000,1056280000,978080000,970010000,1036490000,949520000,1092940000,1054430000,1078670000,1035190000,1089770000,976040000,864520000,854050000,859350000,797950000,716750000,781920000
"O75695","RP2",254449000,253815000,267374000,219947000,228932000,189699000,262038000,263397000,261928000,236142000,201232000,213013000,172566000,143646000,163288000,132601000,132228000,125711000
"O75717","WDHD1",209817000,206727000,216744000,151147000,126389000,151278000,NA,NA,NA,NA,NA,NA,NA,NA,NA,NA,NA,NA
"O75718","CRTAP",1480060000,1567010000,1698120000,1594130000,1522110000,1514250000,1432910000,1249810000,1267280000,1111020000,1283580000,1129500000,982750000,1197720000,1054550000,1104840000,1091440000,1064930000
"O75746","SLC25A12",691250000,538370000,716440000,555120000,651150000,597870000,694020000,719700000,778300000,933340000,814550000,834060000,886110000,688620000,937440000,796970000,695800000,846480000
"O75781","PALM",NA,NA,NA,NA,NA,NA,32689000,NA,35282000,NA,NA,NA,NA,78846000,31366000,47233000,60389000,74349000
"O75787","ATP6AP2",66559000,30178000,40695000,51971000,24089000,25260000,31790000,43177000,NA,66397000,45680000,NA,69382000,47152000,71020000,NA,24021000,NA
"O75792","RNASEH2A",20631000,32461000,37622000,NA,69916000,NA,NA,NA,21797000,16184000,NA,NA,NA,NA,NA,NA,NA,NA
"O75794","CDC123",35252000,84942000,108522000,74101000,121566000,79014000,35854000,48483000,65005000,64596000,37835000,NA,30164000,34218000,NA,34510000,15575000,40778000
"O75815","BCAR3",103286000,146276000,132636000,39580000,83779000,NA,66185000,40478000,34701000,NA,47814000,NA,NA,NA,NA,NA,NA,NA
"O75817","POP7",NA,32722000,NA,63118000,NA,NA,36185000,62765000,93496000,NA,31202000,27767000,37185000,62180000,63446000,NA,NA,NA
"O75818","RPP40",123425000,128874000,128622000,118088000,31216000,67105000,161706000,115184000,133616000,113182000,128451000,174249000,27717000,99423000,102121000,104696000,143824000,126571000
"O75821","EIF3G",3119950000,3099680000,3009160000,2842290000,2938140000,2813110000,2548010000,2665870000,2306510000,2693870000,2586700000,2385910000,2431120000,2443090000,2385040000,2121950000,2119450000,2226640000
"O75822","EIF3J",2632170000,2331290000,2676190000,2607120000,2639660000,2583440000,2294180000,2251700000,2144550000,2349320000,2159450000,2199090000,2475400000,2367560000,2381440000,2645530000,2379860000,2536750000
"O75828","CBR3",NA,75821000,207076000,169526000,236916000,116041000,154492000,199259000,136779000,138402000,194891000,91746000,117407000,NA,67411000,121479000,37045000,66412000
"O75832","PSMD10",896380000,793320000,759920000,824250000,907440000,878500000,990910000,1036350000,870230000,1058930000,1095030000,1076900000,1.156e+09,1021460000,978080000,1090650000,1059710000,1006190000
"O75844","ZMPSTE24",620040000,559980000,603050000,588530000,676940000,541730000,514790000,560840000,529620000,603890000,549810000,552520000,561520000,587160000,601850000,534530000,600210000,594950000
"O75874","IDH1",2158400000,2140170000,2150820000,2158780000,2027590000,2018570000,2512150000,2578030000,2542560000,2467910000,2338250000,2184820000,2132170000,2280560000,2195940000,2442210000,2677130000,2489570000
"O75880","SCO1",180375000,292181000,260526000,227597000,273758000,187046000,309256000,372640000,259102000,408680000,443680000,280680000,506130000,339413000,242760000,444650000,380540000,468800000
"O75884","RBBP9",389990000,368780000,265398000,356390000,449160000,313581000,541370000,395520000,383190000,486180000,4.32e+08,366390000,365950000,306363000,249305000,376188000,294756000,383060000
"O75886","STAM2",108180000,66751000,108685000,NA,NA,75378000,NA,45530000,45456000,49023000,NA,154907000,NA,NA,77643000,NA,NA,NA
"O75891","ALDH1L1",NA,NA,150850000,NA,115750000,241990000,458390000,138740000,NA,404500000,161540000,NA,535340000,NA,NA,242610000,969270000,951310000
"O75907","DGAT1",NA,NA,28086000,22683000,26596000,NA,15124000,28864000,NA,46442000,18304000,NA,64282000,36428000,NA,27763000,36746000,59326000
"O75915","ARL6IP5",1104160000,1123070000,1088840000,1383730000,1085390000,1122730000,2056410000,2049970000,2072390000,2863240000,2585040000,2313660000,3.119e+09,3149440000,2634430000,3250100000,3063830000,3045690000
"O75923","DYSF",12340400000,12168100000,11568200000,14484100000,14831900000,14275600000,16307800000,16856200000,1.6738e+10,21390100000,2.0775e+10,2.0245e+10,26097700000,24754800000,25459700000,27025600000,26365600000,28454700000
"O75934","BCAS2",504610000,558770000,469640000,347880000,584720000,327399000,530740000,608730000,405610000,545320000,466070000,392260000,500980000,309253000,366380000,414120000,352050000,420410000
"O75935","DCTN3",777630000,727500000,696220000,620940000,769860000,680860000,651190000,660520000,607120000,649300000,668970000,553130000,620300000,665910000,645360000,640600000,605670000,674500000
"O75937","DNAJC8",994160000,1036950000,1093630000,956300000,906020000,1074250000,1061730000,1144860000,1066790000,1006970000,1012650000,1054100000,749040000,824970000,902160000,680640000,723180000,653120000
"O75940","SMNDC1",330337000,296029000,319620000,311020000,319679000,406918000,276029000,315905000,272418000,327010000,280440000,336024000,239060000,279282000,230676000,224706000,213368000,206531000
"O75947","ATP5H",2502350000,2577400000,2519910000,3018450000,3231840000,2928810000,3605900000,3148290000,3574800000,3580600000,3793600000,3.643e+09,3776600000,3993800000,3858900000,3983700000,4267700000,3.802e+09
"O75953","DNAJB5",NA,NA,NA,NA,36318000,NA,62611000,NA,NA,127742000,131069000,27553000,164259000,181902000,153542000,138483000,148550000,145684000
"O75955","FLOT1",699690000,690850000,683300000,636570000,714060000,630810000,528880000,534880000,590990000,600600000,628870000,589950000,594270000,573490000,619740000,554670000,581710000,609810000
"O75962","TRIO",869950000,855660000,868880000,912070000,864530000,908970000,742460000,770590000,668630000,715380000,722990000,698120000,659220000,666490000,639870000,604770000,592390000,646150000
"O75964","ATP5L",535890000,393360000,368460000,586380000,639040000,583840000,698880000,628820000,572010000,770950000,808070000,628110000,736440000,755490000,772570000,701710000,691600000,744200000
"O75970","MPDZ",337950000,310402000,317349000,292908000,329220000,331880000,358980000,418320000,348840000,390810000,383950000,303670000,360802000,318190000,284080000,285466000,233675000,285869000
"O75976","CPD",309301000,332860000,325671000,299758000,285376000,313001000,335694000,339385000,356070000,265099000,300267000,293718000,442040000,430280000,383620000,423920000,423400000,436700000
"O76003","GLRX3",2684440000,2932720000,2891890000,2617240000,2875500000,2529050000,2269230000,2516420000,2299610000,2227640000,2.068e+09,2065780000,2115120000,1958720000,1989580000,1895540000,1781310000,1817630000
"O76021","RSL1D1",825770000,792380000,851070000,1091100000,1065110000,951960000,1109270000,1097890000,1122100000,1087820000,1086960000,1022460000,1139940000,984280000,1021920000,900690000,839700000,857260000
"O76024","WFS1",72405000,17892000,49410000,17598000,NA,NA,NA,19299000,NA,13288000,NA,NA,36879000,38927000,NA,NA,19386000,43366000
"O76031","CLPX",561120000,549790000,586980000,471040000,508050000,536050000,574450000,550350000,522790000,537700000,525900000,549050000,440980000,483520000,489660000,455670000,481150000,467780000
"O76054;Q9UDX4","SEC14L2",309366000,260925000,241682000,316545000,318838000,270268000,274318000,222835000,230834000,136050000,209574000,103950000,88893000,168208000,107246000,51885000,128717000,62903000
"O76061","STC2",122694000,130196000,151377000,209593000,183404000,145429000,23359700,29581800,27859800,38938600,68472000,68948000,6239400,24227100,24161700,11120100,10090600,15755400
"O76071","CIAO1",291291000,265235000,265832000,322686000,275467000,330269000,271510000,289115000,291556000,301139000,311826000,273183000,256943000,268358000,344480000,257893000,284933000,258078000
"O76094","SRP72",1102850000,862670000,825740000,1124770000,1017750000,1068200000,872560000,757160000,905750000,908900000,1012210000,963800000,884990000,1022430000,1040130000,998320000,948760000,915300000
"O94760","DDAH1",1929630000,2012640000,2060600000,2075260000,2396180000,2039740000,2286390000,2166250000,2037780000,1803460000,1700270000,1545860000,1597060000,1384930000,1381240000,1230290000,1236890000,1265240000
"O94763","URI1",117881000,97893000,97442000,126250000,124470000,123051000,125684000,87517000,107787000,112024000,124382000,56897000,141692000,110276000,89197000,105984000,71195000,110268000
"O94766","B3GAT3",265777000,264368000,234961000,252128000,213061000,218884000,200120000,170704000,203842000,196401000,199256000,181537000,196622000,189890000,207665000,199200000,192123000,182671000
"O94768","STK17B",66590000,113870000,81094000,41432000,35979000,87995000,12201000,NA,13562000,27784000,31372000,36813000,21336000,25173900,18058500,NA,27982300,10722000
"O94776","MTA2",626480000,595150000,578540000,588140000,659960000,594050000,545020000,495700000,459390000,478600000,496130000,384310000,401900000,412410000,397740000,363116000,299719000,327870000
"O94804","STK10",509930000,498080000,406340000,415670000,470440000,444110000,290315000,341910000,292489000,347390000,338620000,276230000,483010000,432290000,310443000,280390000,345823000,473520000
"O94808","GFPT2",1953160000,1761810000,1951060000,2681680000,2825900000,2780740000,1118130000,1093490000,1264250000,493660000,547740000,468600000,73525000,75903900,143259000,28305700,25007000,26358000
"O94822","LTN1",249320000,227499000,191284000,191570000,262687000,201493000,205942000,100390000,187938000,158031000,158346000,184228000,193725000,189396000,183311000,154094000,158224000,148025000
"O94826","TOMM70A",2617500000,2261520000,2419270000,2436300000,2801760000,2390100000,2903970000,2747840000,2672920000,3.176e+09,2920040000,2774900000,3192100000,3149600000,2979860000,2988430000,2852870000,2988780000
"O94832","MYO1D",695950000,691540000,811330000,1046300000,1029220000,983270000,1422140000,1385040000,1532520000,1309930000,1401900000,1490270000,947780000,981090000,1013740000,777170000,778890000,758810000
"O94851","MICAL2",300948000,332410000,312840000,388480000,328580000,397560000,196242000,50441000,123417000,NA,124390000,NA,NA,NA,38043000,76322000,43214000,NA
"O94855","SEC24D",2014200000,1908340000,1824220000,1970680000,2283050000,1913280000,1789110000,1795760000,1805600000,1891490000,1970200000,1618340000,2201820000,1933670000,1897700000,2028400000,1892510000,2092690000
"O94874","UFL1",925190000,1039490000,965490000,1050050000,1019180000,990100000,884810000,852420000,921320000,916190000,898490000,827830000,917980000,930150000,926070000,1020250000,955230000,963090000
"O94875","SORBS2",64739000,85927000,82537000,111728000,118671000,141673000,148685000,149396000,109016000,212107000,238319000,120734000,782040000,767510000,631810000,1537460000,1770390000,1344890000
"O94888","UBXN7",414640000,368510000,412440000,297518000,393340000,343024000,526640000,539420000,518860000,459970000,408940000,376960000,340240000,280271000,267761000,242529000,195291000,238277000
"O94901","SUN1",511130000,542560000,557300000,594340000,665870000,563820000,703930000,651960000,719810000,674860000,670490000,655260000,624060000,749530000,654530000,610220000,689450000,641970000
"O94903","PROSC",439240000,403340000,438240000,523090000,498670000,504970000,501330000,443360000,447840000,511500000,453230000,528490000,533090000,574340000,589240000,509430000,577440000,514150000
"O94905","ERLIN2",1833300000,1790650000,1770290000,1777730000,1888150000,1597540000,1676610000,1657550000,1637810000,1690740000,1511380000,1471030000,1389050000,1131700000,1248300000,1229520000,1200440000,1190650000
"O94906","PRPF6",1036360000,1010330000,783360000,789210000,1097190000,757480000,843860000,1058380000,799570000,1028480000,963030000,905130000,913330000,786940000,857400000,682370000,702060000,890010000
"O94915","FRYL",151741000,167723000,156524000,149188000,139472000,215505000,121946000,107652000,90212000,83219000,98230000,232730000,24013000,129859000,170271000,79579000,96611000,86545000
"O94916","NFAT5",8231700,NA,7057500,NA,NA,NA,NA,NA,NA,NA,NA,NA,9590300,40143000,6699300,24955000,39117000,44054000
"O94919","ENDOD1",462280000,434610000,434190000,369820000,402180000,345650000,467600000,519230000,442440000,629270000,618140000,609890000,746230000,749340000,671830000,683620000,715740000,651930000
"O94925","GLS",3893900000,3462800000,3455400000,3726200000,3901500000,3625800000,3323100000,3526200000,3330500000,3066400000,2936890000,2712330000,2981780000,2759280000,3059060000,2989100000,3192500000,3109610000
"O94929;Q6H8Q1","ABLIM3",311114000,249393000,273367000,403120000,405140000,371610000,422990000,483430000,480650000,779590000,833260000,812620000,1323750000,1146390000,1271970000,1880870000,1785120000,1918860000
"O94967","WDR47",109564000,111535000,107676000,105128000,107021000,72470000,90836000,87807000,81112000,84192000,82503000,61581000,78535000,70664000,62009000,81040000,61193000,78634000
"O94973","AP2A2",2256770000,2104130000,2097370000,2329030000,2417350000,2272810000,2495560000,2367420000,2637230000,2458870000,2381230000,2362770000,2105930000,2130700000,2091880000,2040290000,2018100000,1966560000
"O94979","SEC31A",7.515e+09,7232900000,7465600000,7227900000,7821600000,7321100000,6290600000,6372200000,6338300000,6886100000,6775800000,5929500000,6.665e+09,6248800000,6641900000,6160900000,6301200000,6.337e+09
"O94992","HEXIM1",419290000,359310000,343399000,381570000,444530000,307266000,574670000,554090000,501930000,566600000,609770000,427970000,409700000,343770000,280218000,273705000,231822000,289419000
"O95071","UBR5",75674000,95113000,171163000,203069000,NA,134971000,NA,NA,42353000,NA,NA,60381000,NA,29077000,30750000,34278000,82757000,NA
"O95084","PRSS23",NA,6071400,12394700,22405200,14901000,11732000,NA,NA,7113500,NA,NA,NA,NA,NA,NA,NA,14526600,7136400
"O95104","SCAF4",241407000,213914000,224609000,274111000,247266000,259321000,252065000,235716000,267581000,233326000,209058000,264804000,222542000,213040000,250660000,103658000,153589000,168811000
"O95140","MFN2",19585000,15715000,25315000,NA,NA,42542000,NA,30484000,NA,NA,17450000,34167000,19567000,NA,NA,37263000,13831000,30877000
"O95149","SNUPN",34489000,37522000,56223000,43639000,52434000,55675000,67890000,37428000,49286000,55948000,45198200,32466800,24035000,25713000,10224000,19564900,8850700,33905400
"O95153;Q9UFD9","BZRAP1",46380000,2.9e+07,18811000,31795000,62682000,34888000,106686000,65545000,47965000,61232000,58424000,62172000,65039000,NA,31290000,42808000,NA,84597000
"O95155","UBE4B",107204000,99339000,77977000,45694000,NA,50999000,87031000,80561000,NA,28233000,88707000,113525000,133250000,83097000,36741000,85573000,127725000,127201000
"O95159","ZFPL1",264171000,243216000,217621000,229295000,269018000,225668000,230039000,201856000,202804000,211488000,246731000,158079000,258527000,255657000,219011000,294290000,279146000,312527000
"O95163","IKBKAP",222256000,226553000,229799000,218126000,189431000,198212000,134574000,151687000,111723000,160042000,178423000,167767000,132222000,173849000,155901000,170929000,144588000,171912000
"O95168","NDUFB4",510870000,474090000,503610000,521320000,662400000,535400000,799480000,715050000,721250000,775770000,777580000,688540000,717370000,722350000,787280000,741250000,796270000,769170000
"O95169","NDUFB8",40590000,32188000,38198000,125640000,100836000,39094000,125947000,157083000,151132000,121950000,126298000,116961000,161758000,160616000,127066000,124965000,208982000,116786000
"O95182","NDUFA7",281705000,279727000,238512000,320382000,395830000,267288000,384960000,402420000,353920000,414250000,404640000,318150000,464920000,366570000,293789000,413570000,353510000,432870000
"O95183","VAMP5",839790000,768070000,855990000,674440000,760280000,1033440000,1211600000,918650000,878160000,847910000,928270000,765570000,663430000,868760000,645910000,722580000,702020000,696260000
"O95197","RTN3",174960000,380800000,595320000,704650000,424620000,694040000,789850000,NA,775320000,NA,569820000,695070000,NA,786140000,764420000,183110000,578620000,NA
"O95202","LETM1",877420000,915120000,873090000,963980000,922690000,953690000,1273090000,1154360000,1183820000,1148250000,1230140000,1302240000,1123250000,1178360000,1306980000,1047340000,1001360000,983930000
"O95218","ZRANB2",404750000,352343000,356100000,362266000,328524000,309744000,420720000,544350000,470340000,452750000,428610000,474320000,374380000,397570000,349940000,320541000,350260000,320027000
"O95219","SNX4",286638000,272660000,245576000,250826000,258229000,270444000,237565000,254697000,219907000,242886000,236580000,245367000,225354000,218345000,234821000,205762000,210052000,229544000
"O95232","LUC7L3",696750000,534860000,595860000,626780000,645600000,601320000,746030000,726270000,715370000,694670000,644300000,589030000,585920000,543590000,443370000,398270000,452290000,474130000
"O95235","KIF20A",102790000,108008000,123150000,32869000,112542000,103355000,NA,NA,NA,NA,NA,NA,NA,NA,NA,NA,NA,NA
"O95239","KIF4A",316572000,324420000,302903000,229461000,252942000,252877000,121883000,NA,88313000,NA,NA,NA,NA,NA,NA,NA,NA,NA
"O95248","SBF1",11590000,47242000,33548000,13812000,NA,27682000,35420000,23967100,41432400,13489000,40415000,36875000,38255000,41272000,21012000,37204000,66330000,67657000
"O95249","GOSR1",144912000,143428000,168449000,170612000,164669000,46281000,83189000,31278000,79406000,122273000,137828000,108100000,129252000,48845000,79729000,134877000,70218000,135103000
"O95260","ATE1",83289000,52573000,24840000,23086000,43743000,32878000,68051000,79593000,70808000,85760000,95373000,81645000,47192000,57165000,80126000,49905000,62716000,85822000
"O95292","VAPB",1651090000,1458740000,1527430000,1318480000,1813540000,1236270000,1376650000,1451510000,1230580000,1734170000,1.623e+09,1134660000,1893840000,1626320000,1425600000,1934290000,1.649e+09,2105130000
"O95295","SNAPIN",357910000,287966000,292532000,284670000,314386000,308079000,283164000,311738000,186554000,330787000,284650000,271267000,316670000,347020000,301680000,344640000,352160000,357140000
"O95297","MPZL1",89274000,52277000,83359000,80474000,123701000,38019000,71640000,81091000,30275000,58046000,23414000,NA,NA,NA,NA,NA,NA,NA
"O95298;E9PQ53","NDUFC2;NDUFC2-KCTD14",441250000,324310000,324909000,326550000,414610000,311629000,486250000,510480000,437460000,549690000,516920000,399560000,573890000,468070000,414530000,482240000,446130000,593790000
"O95299","NDUFA10",511760000,465040000,474800000,493610000,529490000,488620000,774300000,660760000,741620000,827750000,775170000,786160000,686930000,607420000,761680000,686450000,705190000,757330000
"O95302;Q75LS8","FKBP9",1560570000,1736650000,1.979e+09,2124920000,1700640000,2056450000,1959020000,1889810000,1995290000,1675930000,1627380000,1707740000,1431050000,1590070000,1548040000,1646270000,1690760000,1562380000
"O95319","CELF2",9.74e+08,991430000,863860000,1031060000,1310930000,1050890000,1217600000,1222060000,1235950000,1226430000,1195280000,1167650000,1102930000,959600000,1057170000,948900000,938910000,978690000
"O95336","PGLS",3418500000,3394900000,3343600000,3142240000,3.724e+09,3739200000,3707200000,3829800000,4018900000,3812400000,3712800000,3774600000,3444570000,3359200000,3457200000,3502500000,3643800000,3333800000
"O95340","PAPSS2",2769920000,2665760000,2632100000,2076860000,2360640000,1941410000,1658310000,1517490000,1621010000,1008450000,1105870000,986240000,751070000,643030000,678650000,485660000,515280000,486270000
"O95347","SMC2",2727520000,2595190000,2658710000,2272530000,2642470000,2281010000,1215300000,1443730000,1341830000,792430000,669810000,558590000,234783000,198209000,174929000,NA,81632000,111899000
"O95352","ATG7",247755000,189423000,242021000,222768000,235236000,212024000,223504000,223160000,210346000,213971000,233782000,230579000,179610000,180588000,188886000,54274000,186274000,110753000
"O95359","TACC2",169051000,64040000,127906000,138854000,193192000,183446000,166146000,207661000,197589000,319410000,277500000,308869000,383501000,390430000,343903000,364595000,338702000,394500000
"O95361;Q309B1","TRIM16",506010000,427190000,414050000,401780000,473140000,417230000,417330000,451190000,414420000,467340000,392250000,386070000,412850000,343540000,384070000,394410000,411680000,401730000
"O95372","LYPLA2",581990000,456840000,485130000,517640000,593500000,623630000,484590000,478660000,528150000,515880000,541390000,631270000,484680000,571940000,583430000,521760000,627950000,407620000
"O95373","IPO7",5621900000,5557900000,5668700000,6015100000,5650700000,6167700000,4201400000,4278500000,4619300000,4198900000,4665100000,4870200000,4663300000,4922900000,5308800000,5260500000,5449100000,4897800000
"O95376","ARIH2",67623000,98026000,59357000,NA,116971000,42689000,120372000,66308000,33224000,NA,NA,NA,NA,NA,NA,NA,NA,NA
"O95394","PGM3",1583420000,1651760000,1599070000,1243420000,1469480000,1083310000,1380820000,1372540000,1173660000,1164620000,1222180000,1058630000,1233320000,1107730000,938890000,1288420000,1247190000,1353620000
"O95396","MOCS3",29658000,56290000,26347000,58925000,31938000,27687000,NA,25739000,NA,53110000,41338000,54327000,NA,27486000,53342000,46442000,NA,29224000
"O95400","CD2BP2",159644000,132889000,187960000,165731000,60268000,NA,180210000,47945000,135036000,47795000,167368000,NA,NA,NA,NA,50029000,43097000,54322000
"O95425","SVIL",NA,NA,NA,NA,NA,NA,NA,NA,NA,55474000,NA,48567000,163466000,165228000,167297000,90155000,133483000,178560000
"O95433","AHSA1",1489670000,1611870000,1703540000,1638430000,1477370000,1714020000,1566600000,1489990000,1433150000,1599900000,1635890000,1753630000,1684410000,1779150000,1901070000,1901310000,1805140000,1756620000
"O95453","PARN",653770000,6.48e+08,459080000,127268000,746400000,343810000,409700000,574805000,541640000,851070000,343597000,NA,594740000,203280000,211050000,NA,205740000,NA
"O95456","PSMG1",206189000,203864000,196392000,178231000,163949000,199289000,143291000,143941000,165052000,127481000,140789000,184280000,123372000,138083000,178036000,134444000,138863000,120220000
"O95466","FMNL1",429840000,590280000,506510000,682680000,604800000,690240000,1084370000,1036830000,1049930000,1860450000,1750140000,1552400000,1995720000,1859450000,1859090000,1543340000,1549150000,1543380000
"O95470","SGPL1",109214000,216937000,167014000,228068000,313210000,211908000,180630000,176303000,188863000,192666000,178397000,160048000,170561000,158260000,153940000,183087000,182571000,191822000
"O95478","NSA2",100888000,203277000,184959000,33790000,84929000,33533000,135920000,128492000,108416000,100420000,151392000,128179000,102576000,92476000,118660000,112252000,57375000,109345000
"O95479","H6PD",1093160000,1099890000,1093980000,1310120000,1308540000,1322230000,1017780000,1044230000,1012330000,921530000,867130000,943630000,799610000,715680000,819070000,611260000,633440000,559120000
"O95486","SEC24A",280677000,266728000,269133000,316176000,254175000,265710000,245687000,268819000,236614000,236730000,221875000,280315000,245804000,234873000,275723000,239969000,243205000,182666000
"O95487","SEC24B",393370000,359800000,376700000,315212000,376890000,312446000,339851000,306302000,328330000,349260000,338920000,272532000,280279000,284777000,258847000,281807000,276172000,280364000
"O95563","MPC2",90572000,131478000,92049000,25466000,58370000,NA,47805000,95097000,115850000,151137000,144215000,83435000,90001000,153286000,116365000,152764000,123635000,91361000
"O95571","ETHE1",869720000,821400000,851590000,845460000,783790000,807100000,971380000,941530000,947640000,957750000,801100000,891120000,749220000,709720000,625820000,658520000,715850000,741150000
"O95573","ACSL3",3308100000,3385100000,3.355e+09,4248600000,4214100000,3986100000,4.516e+09,4.337e+09,4626800000,4.882e+09,4603200000,4491400000,5879300000,6452400000,6240500000,8041800000,8522600000,8144500000
"O95602","POLR1A",170738000,197362000,182919000,205462000,174478000,199873000,190682000,161744000,205601000,166242000,210529000,194784000,172348000,154393000,144522000,45222000,103081000,73990000
"O95613","PCNT",72144000,109896000,116071000,110373000,34773000,89278000,113269000,129729000,160368000,40051000,101441000,83856000,107975000,115741000,67534000,125152000,122516000,154252000
"O95630","STAMBP",333850000,337250000,317790000,315470000,341560000,343220000,357660000,340950000,348400000,380620000,344580000,352170000,380430000,341390000,345050000,339780000,339730000,312140000
"O95671","ASMTL",485220000,407520000,381810000,553480000,576890000,515050000,619580000,636650000,581410000,756420000,741300000,611840000,918210000,765280000,686310000,776680000,749310000,849360000
"O95674","CDS2",144924000,129038000,99997000,73012000,73458000,99819000,86810000,64681000,132626000,NA,128792000,104314000,107307000,134101000,114556000,89630000,169125000,220770000
"O95684","FGFR1OP",75792000,25183000,56750000,15095000,NA,18284000,NA,15829000,NA,NA,NA,NA,NA,NA,NA,NA,NA,NA
"O95714","HERC2",32753000,42822000,32197000,16808000,36248000,49871000,18005000,18740000,35174000,12388000,37843000,34308000,38370000,27416000,23531000,31756000,51957000,40364000
"O95721","SNAP29",317574000,367410000,403120000,376140000,267092000,326100000,385150000,371440000,271446000,266655000,338042000,307792000,283381000,290462000,257252000,291281000,271175000,245557000
"O95747","OXSR1",3721800000,3.272e+09,3463500000,3.157e+09,3314900000,3318400000,3416400000,3331600000,3358100000,3167500000,3.33e+09,3171620000,2959520000,2987280000,3075920000,2822440000,2728780000,2927150000
"O95777","LSM8",475208000,549690000,611420000,522360000,535500000,443933000,743440000,651540000,623610000,589250000,645760000,662820000,491200000,610730000,552710000,637020000,574340000,509480000
"O95782","AP2A1",6.382e+09,6568200000,6525500000,6970100000,6802900000,6744500000,6691800000,6899300000,6941800000,6802600000,6378600000,6.415e+09,5822700000,5881400000,5910600000,5.799e+09,5563400000,5582600000
"O95785","WIZ",28995000,NA,NA,28873000,11096000,NA,14705000,NA,14039000,14562000,NA,NA,NA,NA,NA,NA,NA,NA
"O95786","DDX58",160170000,129053000,128944000,164919000,153125000,82918000,110116000,88549000,76005000,109249000,67662000,125519000,92816000,43218000,40440000,97437000,NA,NA
"O95793","STAU1",1693330000,1515420000,1503340000,1435410000,1.706e+09,1295980000,1045950000,1044480000,1059790000,1292890000,1251570000,1014820000,1238180000,1102950000,1064820000,1056920000,1006340000,1081980000
"O95801","TTC4",NA,88128000,38864000,42253000,151720000,76197000,69275000,117713000,36553000,NA,22899000,90399000,31873000,56081000,28893000,20677000,15523000,32474000
"O95810","SDPR",9887500000,8570200000,9110500000,8263500000,8184800000,8678800000,7290400000,6.809e+09,6545100000,5312900000,5128900000,5057300000,3050700000,3521500000,3391800000,2195250000,2477170000,2499580000
"O95816","BAG2",1250430000,1090600000,1205840000,1230170000,1303370000,1221530000,1310630000,1466170000,1296590000,1664650000,1734130000,1491200000,2059710000,1744210000,1622730000,1738500000,1731740000,1823730000
"O95817","BAG3",3949800000,3737700000,3665800000,3.822e+09,4354100000,3788900000,3471600000,3360290000,3307900000,4361100000,4156200000,3445900000,5311100000,4893900000,4317800000,5305300000,5203300000,5572400000
"O95819;Q9UKE5","MAP4K4",732730000,783920000,782140000,818160000,857570000,857620000,630030000,627880000,654290000,582450000,593280000,497610000,449260000,413650000,370300000,297976000,341585000,357672000
"O95825","CRYZL1",181112000,198944000,221646000,193746000,318588000,187525000,257220000,207322000,209680000,217741000,227336000,205317000,243060000,180339000,146013000,167425000,152217000,157418000
"O95831","AIFM1",1045090000,1021430000,998060000,1003060000,1040310000,1081040000,1436090000,1359760000,1480280000,1628330000,1598590000,1637510000,1690010000,1543250000,1569130000,1763730000,1663740000,1620090000
"O95834","EML2",77583000,96731000,38798000,74432000,63228000,62533000,62264000,72721000,63060000,78994000,33042000,55553000,96907000,60986000,62605000,88726000,56174000,76625000
"O95861","BPNT1",493300000,455240000,413890000,496430000,576690000,545390000,507870000,519450000,481760000,607450000,611030000,465480000,596090000,492500000,500130000,585590000,472930000,621220000
"O95864","FADS2",225822000,225567000,216741000,107161000,114767000,70088000,NA,NA,NA,82646000,NA,NA,238001000,243412000,244388000,354042000,322154000,314458000
"O95865","DDAH2",1298440000,1355210000,1465420000,1469630000,1631640000,1536580000,2155030000,2111540000,2011090000,2219110000,2166770000,1890570000,2266780000,2166710000,1920600000,2554130000,2331970000,2560660000
"O95870","ABHD16A",NA,NA,NA,NA,83379000,37674000,NA,117654000,48588000,139269000,88348000,NA,150153000,58419000,NA,39485000,46526000,147725000
"O95881","TXNDC12",444440000,464580000,527970000,599410000,595770000,533460000,441300000,461580000,440960000,396940000,374584000,461980000,350850000,389150000,379720000,454890000,411300000,420800000
"O95983","MBD3",27296000,NA,NA,35173000,29487000,86935000,NA,NA,22368000,17283100,NA,102710000,25694000,79372000,91159000,NA,51043000,NA
"O95989","NUDT3",200703000,237037000,209957000,270538000,262867000,276210000,220725000,219170000,215045000,217603000,237855000,231898000,168767000,307026000,199724000,253099000,279332000,258764000
"O96000","NDUFB10",245960000,240939000,230252000,NA,295421000,79052000,395660000,444790000,304641000,425600000,398390000,333920000,369566000,255810000,311837000,315373000,244655000,391910000
"O96005","CLPTM1",987770000,1005090000,859540000,768610000,898360000,711420000,744920000,650250000,624370000,903900000,936200000,842010000,1273850000,1166240000,1095810000,1062630000,1096200000,1298030000
"O96007","MOCS2",63330000,113117000,120443000,36383000,30168000,122826000,NA,NA,NA,22977000,NA,108419000,31401000,71196000,108764000,19908000,87549000,NA
"O96008","TOMM40",552450000,715600000,875110000,808720000,587200000,869970000,727280000,770400000,941990000,826630000,952750000,1082630000,748030000,835930000,1044570000,828830000,1117970000,764030000
"O96011","PEX11B",137233000,138994000,84451000,160333000,208341000,124266000,147774000,148163000,178225000,128856000,153662000,160927000,112198000,164417000,187557000,162270000,162522000,137843000
"O96019","ACTL6A",926460000,992060000,982510000,1023150000,1089260000,902470000,969410000,956380000,980150000,872520000,882570000,705780000,693300000,662240000,649790000,620540000,564160000,628520000
"O96033","MOCS2",96591000,66025000,69524000,29347000,94554000,NA,22738000,90122000,33299000,99264000,29328000,NA,99448000,NA,NA,72453000,33954000,71326000
"P00167","CYB5A",970740000,878880000,813340000,754260000,976300000,687510000,774360000,750250000,664040000,866690000,784530000,6.69e+08,768420000,642280000,600960000,776670000,722480000,761030000
"P00338;Q6ZMR3","LDHA",5.9761e+10,5.0218e+10,5.0987e+10,7.997e+10,7.8141e+10,7.7371e+10,6.0553e+10,6.4669e+10,6.7082e+10,5.8357e+10,5.3625e+10,5.2523e+10,4.8852e+10,5.1766e+10,4.9958e+10,5.0801e+10,5.067e+10,5.0374e+10
"P00352","ALDH1A1",2.8206e+10,28049800000,27075500000,3.4839e+10,3.6869e+10,3.2684e+10,3.7926e+10,3.8522e+10,3.7244e+10,3.2678e+10,3.2701e+10,30005100000,25367100000,22298700000,22814600000,20347300000,19074800000,19591500000
"P00367;P49448","GLUD1;GLUD2",3079800000,3170200000,3069910000,3209100000,3356400000,3083700000,4.118e+09,4068300000,4203900000,4656700000,4396800000,4270300000,4177600000,3855100000,3770900000,4141500000,4208200000,4.238e+09
"P00374;Q86XF0","DHFR",436400000,371320000,401770000,315685000,304350000,259067000,118205000,99820000,133109000,NA,26204000,31947000,NA,NA,NA,NA,NA,NA
"P00387","CYB5R3",9894400000,9472500000,9970600000,1.107e+10,10923300000,10399100000,10636800000,10541600000,11196200000,10630100000,10223700000,10285200000,9685200000,9.517e+09,9768500000,9755900000,10275600000,9887600000
"P00390","GSR",3.427e+09,2983120000,2727310000,3578200000,4037300000,3.247e+09,5173100000,5535900000,5134800000,5801800000,5.703e+09,4890200000,5040500000,4610800000,4868900000,4460100000,4183600000,4570200000
"P00403","MT-CO2",1729610000,1651830000,1587480000,1591640000,1715360000,1566330000,1895950000,2118550000,1956040000,2026370000,1826110000,1666390000,1485980000,1455290000,1397460000,1098110000,1174720000,1202850000
"P00441","SOD1",2697460000,3170780000,3265500000,2757690000,2521190000,2796110000,3309500000,3441900000,3382300000,3177200000,3397800000,3150500000,3060030000,2915010000,2638520000,3.292e+09,3146790000,3420800000
"P00488;P16452","F13A1",270541000,108808000,109657000,1552450000,1535910000,1387020000,2644200000,2964520000,3328800000,16154200000,1.5219e+10,13003600000,3.7177e+10,3.4871e+10,3.415e+10,5.1764e+10,5.1823e+10,5.4312e+10
"P00491","PNP",1724680000,1643720000,1441630000,1307690000,1445420000,1259470000,1165610000,1253870000,1181790000,998340000,999160000,896030000,721230000,509920000,674750000,497060000,375950000,513610000
"P00492","HPRT1",1789240000,1625120000,1709840000,1762140000,1751560000,1787980000,1649630000,1587740000,1632160000,1501740000,1525110000,1620860000,1481250000,1480580000,1501950000,1371850000,1457380000,1360920000
"P00505","GOT2",3284100000,3222200000,3299400000,3073310000,3410200000,3101280000,3615400000,3641300000,3740100000,3895200000,3858500000,3919300000,3600500000,3620300000,3.856e+09,3829700000,3802100000,3621100000
"P00533","EGFR",150060000,140291000,143991000,34156000,126423000,75491000,NA,36474000,NA,73485000,38022000,31492000,NA,NA,NA,NA,NA,NA
"P00558;P07205","PGK1",30277700000,28696600000,27661100000,3.7117e+10,4.1067e+10,3.4318e+10,4.0241e+10,4.2938e+10,3.9762e+10,3.903e+10,3.7596e+10,32192600000,3.697e+10,3.2473e+10,3.2509e+10,3.6336e+10,3.6317e+10,3.7935e+10
"P00568","AK1",2064870000,2141950000,2041840000,2111040000,2205290000,2334010000,3092400000,3036230000,3015440000,5183700000,5425800000,5072500000,11391800000,10133100000,9788100000,1.4509e+10,1.307e+10,14343600000
"P00749","PLAU",240228000,191489000,205125000,179717000,190187000,194411000,NA,NA,NA,NA,NA,NA,27659000,NA,NA,NA,NA,NA
"P00750","PLAT",491420000,495400000,465300000,307539000,308788000,321751000,NA,NA,NA,NA,NA,NA,NA,NA,NA,NA,NA,48049000
"P00813","ADA",NA,NA,48562000,48706000,81114000,NA,94419000,56976000,64009000,84958000,78684000,31899000,107119000,33598000,NA,51998000,49834000,55264000
"P00846","MT-ATP6",52454000,49136000,87896000,NA,NA,71307000,NA,77136000,NA,NA,67270000,113970000,71898000,NA,NA,136210000,63461000,60756000
"P01111","NRAS",912520000,838990000,848810000,693870000,866490000,700220000,736800000,727990000,709740000,650150000,693510000,636600000,559930000,534130000,487450000,412660000,430200000,462440000
"P01116","KRAS",71170000,NA,113084000,85311000,38943000,108373000,35850000,NA,64432000,NA,26468000,51076000,NA,NA,76034000,NA,NA,NA
"P01130","LDLR",44262000,NA,86790000,NA,NA,NA,NA,NA,NA,NA,NA,NA,141676000,120524000,167146000,99543000,56838000,173937000
"P02461","COL3A1",203544000,172931000,275066000,489280000,537180000,383734000,815580000,891290000,780650000,1916110000,1738660000,1384960000,1388320000,1127650000,1039870000,811740000,588480000,766580000
"P02511","CRYAB",2820420000,3323500000,3358300000,5.036e+09,4726100000,4977600000,4831400000,5.212e+09,4802600000,6176900000,5504700000,6.008e+09,11204900000,12165900000,11110900000,17423200000,17192500000,16096100000
"P02545","LMNA",4.6087e+10,4.9058e+10,4.8104e+10,4.9613e+10,5.0529e+10,4.7548e+10,7.8937e+10,7.5698e+10,7.3716e+10,8.7789e+10,8.28e+10,7.1689e+10,9.2313e+10,8.6308e+10,7.5734e+10,9.0358e+10,8.6539e+10,9.5695e+10
"P02585","TNNC2",NA,NA,NA,40332000,NA,34601000,75026000,33134000,45114000,405040000,386180000,554630000,2006740000,1650860000,1786710000,2562560000,2155840000,2134300000
"P02649","APOE",NA,NA,166606000,NA,NA,NA,1158790000,1075760000,1208150000,3245100000,3.406e+09,3370100000,3.378e+09,3877100000,3599700000,2997080000,3080910000,2869230000
"P02751","FN1",26170500000,2.8536e+10,3.2567e+10,4.1803e+10,4.0482e+10,4.2462e+10,17272900000,17923400000,16608600000,1.3397e+10,1.3205e+10,12625200000,16022800000,14418400000,14169200000,3.1993e+10,30323200000,31718700000
"P02786","TFRC",1275440000,1289880000,1258960000,1312780000,1169540000,1189840000,816240000,752380000,823400000,1247190000,1243020000,1128630000,906140000,847270000,943730000,706270000,708420000,648290000
"P02792","FTL",873570000,815140000,854870000,357429000,398710000,334650000,928330000,889120000,809370000,707870000,618250000,528550000,411320000,276706000,329200000,282754000,297687000,325258000
"P02794","FTH1",2558710000,2708440000,2972030000,2095640000,2403370000,2305830000,3.258e+09,3270800000,2966180000,2370620000,2391250000,2181300000,1822520000,1818860000,1792190000,1798310000,1787560000,1817130000
"P03886","MT-ND1",25172000,NA,NA,60272000,77157000,26227000,58650000,76527000,127587000,60189000,110154000,110414000,73740000,20668000,60770000,117417000,35588000,64817000
"P03905","MT-ND4",67652000,24657000,51544000,48295000,71384000,80894000,40161000,64699000,91375000,112835000,120941000,117163000,118228000,111717000,103816000,123748000,36283000,39133000
"P03915","MT-ND5",NA,33247000,NA,78434000,62597000,NA,139014000,81395000,102396000,62885000,113047000,NA,48774000,NA,NA,NA,NA,NA
"P03928","MT-ATP8",NA,NA,NA,240526000,165506000,195216000,272960000,280374000,302577000,323453000,359430000,305060000,341999000,288318000,286193000,357326000,339090000,339523000
"P04040","CAT",2661840000,2896620000,2773060000,2924300000,3216400000,2979300000,3657200000,3717100000,3.478e+09,3380900000,3507200000,3389900000,3.403e+09,3052400000,3.223e+09,3933200000,3565900000,3949700000
"P04049","RAF1",105594000,143736000,112735000,137645000,157936000,119687000,54945000,50315000,64887000,92919000,92353000,94222000,77984000,20124000,NA,47762000,19412000,24031000
"P04062","GBA",594050000,586580000,549570000,554680000,673380000,631560000,854520000,835980000,863630000,825250000,770900000,702390000,588250000,597520000,612910000,516410000,523250000,608750000
"P04075;P05062","ALDOA",4.8949e+10,5.1646e+10,4.9589e+10,5.0019e+10,4.6183e+10,5.2438e+10,5.5602e+10,5.3622e+10,5.2541e+10,5.6508e+10,5.3854e+10,4.8417e+10,7.2923e+10,6.9444e+10,6.8238e+10,7.7895e+10,8.0382e+10,7.94e+10
"P04080","CSTB",3.87e+09,3888900000,4184100000,3834100000,4152700000,3813100000,4403200000,4347600000,4101100000,5227600000,4590500000,4352900000,4894300000,4906200000,4458500000,4844300000,5137800000,5028600000
"P04083","ANXA1",4.6068e+10,4.8516e+10,4.8974e+10,4.4971e+10,4.3115e+10,4.8138e+10,4.3979e+10,4.4253e+10,4.4088e+10,3.7446e+10,3.7229e+10,4.0555e+10,31699500000,3.3157e+10,3.409e+10,3.2238e+10,3.3828e+10,30997700000
"P04114","APOB",2401830000,2808600000,1491660000,998630000,1486980000,498810000,2375030000,998150000,851430000,NA,1308660000,416820000,314110000,1566640000,557040000,603680000,NA,NA
"P04150;P08235","NR3C1",NA,NA,NA,NA,13443000,NA,104347000,109832000,90554000,58197000,91135000,23615000,23747000,17086000,NA,69548000,50464000,27984000
"P04156","PRNP",251460000,114260000,247560000,NA,119130000,NA,102250000,NA,NA,152170000,117660000,NA,NA,NA,195740000,NA,NA,NA
"P04179","SOD2",646250000,716610000,706520000,738960000,6.63e+08,800880000,1187560000,1344480000,1266750000,1242860000,1303290000,1331040000,1291670000,1404410000,1303820000,1408500000,1421120000,1472680000
"P04181","OAT",2589280000,2749370000,2737200000,2261050000,2432380000,2306590000,1334290000,1151060000,1355070000,776930000,908720000,964050000,392326000,501480000,591140000,486360000,618740000,304121000
"P04183","TK1",168351000,187443000,162668000,134172000,175199000,158067000,NA,NA,NA,NA,NA,NA,NA,NA,NA,NA,NA,NA
"P04216","THY1",3929100000,3229500000,3163210000,4517300000,4846300000,4098400000,7238600000,4898900000,5791100000,5258800000,5297200000,5465500000,4474900000,4934200000,4534700000,4936300000,3473500000,3540440000
"P04406","GAPDH",29944900000,30689900000,3.1891e+10,4.2615e+10,4.5005e+10,4.2605e+10,4.0564e+10,4.1057e+10,4.3389e+10,3.772e+10,3.3892e+10,3.58e+10,3.7815e+10,4.0371e+10,3.9148e+10,3.6154e+10,4.0978e+10,3.4914e+10
"P04424","ASL",180596000,259585000,214595000,147407000,125516000,157816000,194700000,145930000,130215000,100570000,162146000,196326000,88687000,124178000,108226000,86053000,132172000,95599000
"P04439;P13746;P16188;P30459;P10314;P01892;P05534;P16189;P30447","HLA-A",2427790000,2449210000,2434180000,3221200000,3228200000,2821740000,4192700000,4375700000,4177400000,4810600000,4607500000,4131500000,4049400000,3973900000,3943500000,3296300000,3255900000,3683900000
"P04632;Q96L46","CAPNS1",2643390000,2519270000,2699780000,2516740000,3190650000,2778040000,2642650000,2657940000,2520480000,2473070000,2035750000,2403240000,2477680000,2203090000,2470530000,2382650000,2276830000,2356020000
"P04792","HSPB1",3685100000,4092200000,4159600000,5249300000,4972700000,5057500000,5944200000,6707600000,6318100000,9226100000,9721400000,8864600000,13721100000,12944900000,13736400000,16988500000,18378100000,1.8629e+10
"P04818","TYMS",774830000,795210000,871030000,581450000,509400000,517780000,45816000,NA,NA,NA,NA,NA,NA,NA,NA,NA,NA,NA
"P04843","RPN1",12481400000,13160600000,12653300000,1.3727e+10,13112300000,14205900000,14231300000,13093800000,14042200000,13498800000,13768600000,1.3315e+10,13558500000,13610700000,1.5178e+10,14549500000,13638400000,14227600000
"P04844","RPN2",7064400000,8075100000,7353500000,8571600000,7724200000,8708200000,7.419e+09,7275500000,8261600000,7477800000,8226600000,8747300000,7.671e+09,8348100000,9671600000,8831900000,9229100000,7910900000
"P04899;P11488;P19087;A8MTJ3;P09471","GNAI2",4584300000,3985200000,4185400000,3266400000,3.676e+09,3383800000,4824400000,5031200000,5403400000,5127600000,5450900000,5314100000,3793500000,4031900000,4022800000,3683400000,3602900000,3711100000
"P04920","SLC4A2",NA,NA,NA,NA,18373900,NA,NA,NA,9875700,36697000,23144000,11254000,21904300,21461000,38637000,10668000,10189000,40204000
"P05023;P13637;Q13733;P20648","ATP1A1",4201200000,3906400000,3923700000,3721900000,3905700000,3712700000,4442400000,4374100000,4217500000,5246300000,5020600000,4.817e+09,6462200000,5879300000,5752600000,5364700000,5327600000,5864900000
"P05026","ATP1B1",143622000,208302000,156733000,205399000,234800000,190081000,191571000,56808000,171983000,171800000,171422000,114620000,224373000,89009000,198777000,220647000,70749000,216915000
"P05067","APP",270490000,290536000,293008000,308696000,322180000,256461000,489850000,465780000,436140000,526410000,563460000,424480000,746970000,635480000,588370000,715230000,597470000,800460000
"P05121","SERPINE1",5056600000,7.034e+09,6470900000,5021400000,6789800000,3693400000,495220000,656420000,475010000,43216700,29743000,3287000,47089000,22490200,4957000,23265100,18159200,42273000
"P05141;Q9H0C2","SLC25A5",3072400000,2829070000,2863420000,3212340000,3231700000,3017050000,3268400000,3037950000,3495500000,3094440000,3201900000,3071420000,2880340000,2806310000,2865350000,2633750000,2590090000,2640100000
"P05161","ISG15",174042000,328310000,274738000,283371000,176896000,295045000,335830000,298436000,400230000,342910000,423340000,320376000,484350000,408840000,389280000,472590000,557360000,526600000
"P05165","PCCA",46831000,NA,36820000,38855000,NA,41077000,134675000,96069000,150526000,179207000,140949000,161044000,179905000,173474000,154715000,155584000,161617000,168832000
"P05166","PCCB",32046000,NA,18932000,73295000,43143000,17967000,81294000,124218000,113641000,151919000,170353000,122838000,224896000,116862000,85918000,145530000,124628000,182956000
"P05186","ALPL",4639100000,4040600000,4094300000,4665300000,5343200000,4573700000,5510600000,5465500000,4910500000,3805700000,3750500000,2981960000,2485730000,2199510000,2001040000,1659500000,1503650000,1708390000
"P05198","EIF2S1",5230500000,5592600000,5344300000,4893400000,5110200000,4747700000,4675200000,4449900000,4594500000,4523900000,4639200000,4215400000,4.506e+09,4.209e+09,4734500000,4585400000,4334100000,4759700000
"P05386","RPLP1",NA,2851900000,5464300000,4425700000,1171200000,6488300000,4319940000,2925100000,2911300000,1640400000,3986130000,6221500000,3127100000,4472700000,5.054e+09,2658200000,2566600000,2951200000
"P05387","RPLP2",15125700000,14139100000,14598600000,12627600000,15082200000,1.2424e+10,10749500000,11215300000,9767700000,12404500000,12019400000,10971200000,12413400000,10167700000,10238900000,11292200000,9399100000,10488800000
"P05388;Q8NHW5","RPLP0;RPLP0P6",18876800000,20748400000,21161300000,19377500000,17155400000,19519700000,15496500000,14698600000,15963500000,15965700000,16122300000,16869900000,16495500000,15856700000,17122900000,14546700000,14307800000,14431100000
"P05413;P02689","FABP3",107393000,25483000,36926500,440400000,326511000,507360000,801230000,855180000,939420000,1844250000,1618060000,1504560000,6440400000,5657500000,6047200000,13725500000,14228600000,1.2382e+10
"P05455","SSB",7542900000,8372300000,9165300000,8.717e+09,9.05e+09,8446800000,8396100000,8462900000,7877100000,7726900000,7.36e+09,7531900000,5979700000,6006700000,6014300000,5405900000,4973600000,5158500000
"P05556","ITGB1",7080500000,6857800000,7235200000,6943600000,7212700000,7215700000,7734200000,7417900000,6756100000,5774800000,5465700000,5008200000,4386300000,4247100000,4379700000,4328500000,3691900000,4448100000
"P05976","MYL1",NA,224780000,NA,100440000,NA,12898000,295504000,376320000,296212000,1234630000,1289350000,977880000,2680360000,2.272e+09,2291110000,3989200000,3558800000,3.745e+09
"P05997","COL5A2",84025000,40223000,40343000,144942000,146975000,153554000,38721000,48716000,50994000,199897000,108944000,99419000,178330000,202759000,155303000,144261000,105723000,171236000
"P06132","UROD",1422930000,1790360000,1890940000,1744120000,1712060000,1807400000,1534840000,1722990000,1739720000,1460970000,1525710000,1903890000,1360600000,1504560000,1510590000,1133250000,1377110000,1089710000
"P06396","GSN",21352300000,19479400000,19635600000,21558100000,25016200000,20667500000,28596300000,29344700000,25828500000,3.0676e+10,30261600000,28979500000,3.6306e+10,3.1765e+10,3.282e+10,4.0403e+10,3.7085e+10,4.3916e+10
"P06400","RB1",37482000,42140000,65094000,NA,72074000,104567000,NA,NA,NA,NA,NA,NA,NA,NA,NA,20800000,NA,NA
"P06454","PTMA",2231740000,3049810000,4561680000,2567230000,1767820000,3865870000,3197250000,3154270000,2194370000,1964090000,2322410000,2465020000,1577960000,1248890000,1541750000,1201570000,1052730000,967580000
"P06493","CDK1",1596210000,1419820000,1439290000,1130320000,1516610000,1057050000,578610000,844650000,587820000,238623000,211080000,102664000,51093000,NA,NA,NA,NA,NA
"P06576","ATP5B",24138100000,21909400000,21383800000,21587700000,2.5612e+10,21383500000,30624300000,29631200000,28789200000,3.4613e+10,31645600000,27070800000,3.4316e+10,30054400000,29661900000,3.2394e+10,30338400000,3.4126e+10
"P06703","S100A6",19883800000,17819200000,22700800000,20657200000,20401400000,17572900000,23684400000,27230200000,22760700000,19987100000,23037800000,16891900000,20931900000,15736500000,14529400000,17987700000,17168200000,17413300000
